SpectraSuite Data File
++++++++++++++++++++++++++++++++++++
Date: Mon Jun 15 09:45:04 PDT 2015
User: introlabs
Dark Spectrum Present: Yes
Reference Spectrum Present: Yes
Number of Sampled Component Spectra: 1
Spectrometers: USB4H08886
Integration Time (usec): 44366 (USB4H08886)
Spectra Averaged: 20 (USB4H08886)
Boxcar Smoothing: 5 (USB4H08886)
Correct for Electrical Dark: Yes (USB4H08886)
Strobe/Lamp Enabled: No (USB4H08886)
Correct for Detector Non-linearity: Yes (USB4H08886)
Correct for Stray Light: Yes (USB4H08886)
Number of Pixels in Processed Spectrum: 3648
>>>>>Begin Processed Spectral Data<<<<<
178.14	-0.000
178.36	-0.000
178.57	-0.000
178.79	-0.000
179.01	0.552
179.22	-0.000
179.44	-0.000
179.65	-0.553
179.87	-0.297
180.08	0.012
180.30	0.027
180.52	-0.050
180.73	0.000
180.95	0.475
181.16	0.673
181.38	0.679
181.59	0.693
181.81	0.825
182.03	1.156
182.24	1.282
182.46	1.393
182.67	1.348
182.89	1.500
183.10	1.420
183.32	1.928
183.54	1.733
183.75	2.916
183.97	-0.000
184.18	-0.000
184.40	-0.000
184.61	-0.000
184.83	-0.000
185.04	-0.000
185.26	-0.000
185.48	-0.000
185.69	-0.000
185.91	-0.000
186.12	-0.000
186.34	-0.000
186.55	-0.000
186.77	-0.000
186.98	-0.000
187.20	2.274
187.42	-0.000
187.63	-0.000
187.85	-0.000
188.06	-0.000
188.28	-0.000
188.49	-0.000
188.71	-0.000
188.92	-0.000
189.14	-0.000
189.36	-0.000
189.57	-0.000
189.79	-0.000
190.00	-0.000
190.22	1.664
190.43	1.509
190.65	1.554
190.86	2.336
191.08	1.814
191.29	1.566
191.51	1.602
191.72	1.306
191.94	1.551
192.16	1.810
192.37	2.566
192.59	-0.000
192.80	-0.000
193.02	-0.000
193.23	-0.000
193.45	-0.000
193.66	-0.000
193.88	-0.000
194.09	-0.000
194.31	-0.000
194.52	-0.000
194.74	-0.000
194.95	-0.000
195.17	-0.000
195.38	-0.000
195.60	-0.000
195.81	-0.000
196.03	-0.000
196.25	-0.000
196.46	-0.000
196.68	-0.000
196.89	-0.000
197.11	-0.000
197.32	-0.000
197.54	-0.000
197.75	-0.000
197.97	-0.000
198.18	-0.000
198.40	-0.000
198.61	-0.000
198.83	-0.000
199.04	-0.000
199.26	-0.000
199.47	-0.000
199.69	-0.000
199.90	-0.000
200.12	-0.000
200.33	-0.000
200.55	-0.000
200.76	-0.000
200.98	1.563
201.19	1.546
201.41	1.630
201.62	1.412
201.84	1.900
202.05	-0.000
202.27	-0.000
202.48	-0.000
202.70	-0.000
202.91	-0.000
203.13	-0.000
203.34	-0.000
203.56	-0.000
203.77	-0.000
203.99	-0.000
204.20	-0.000
204.42	-0.000
204.63	-0.000
204.85	-0.000
205.06	-0.000
205.28	-0.000
205.49	-0.000
205.71	-0.000
205.92	-0.000
206.14	-0.000
206.35	-0.000
206.56	1.939
206.78	1.706
206.99	2.154
207.21	2.586
207.42	1.659
207.64	1.714
207.85	2.021
208.07	-0.000
208.28	-0.000
208.50	-0.000
208.71	2.205
208.93	-0.000
209.14	-0.000
209.36	-0.000
209.57	1.875
209.79	-0.000
210.00	2.806
210.22	1.531
210.43	1.315
210.64	1.387
210.86	1.492
211.07	1.398
211.29	1.500
211.50	1.848
211.72	1.590
211.93	-0.000
212.15	2.363
212.36	-0.000
212.58	-0.000
212.79	-0.000
213.01	-0.000
213.22	-0.000
213.43	-0.000
213.65	-0.000
213.86	-0.000
214.08	-0.000
214.29	-0.000
214.51	-0.000
214.72	-0.000
214.94	-0.000
215.15	-0.000
215.36	-0.000
215.58	-0.000
215.79	-0.000
216.01	-0.000
216.22	-0.000
216.44	-0.000
216.65	-0.000
216.87	-0.000
217.08	-0.000
217.29	-0.000
217.51	-0.000
217.72	-0.000
217.94	2.588
218.15	-0.000
218.37	-0.000
218.58	-0.000
218.80	-0.000
219.01	-0.000
219.22	-0.000
219.44	-0.000
219.65	2.191
219.87	1.771
220.08	1.558
220.30	1.469
220.51	1.383
220.72	1.471
220.94	1.508
221.15	1.552
221.37	1.677
221.58	1.998
221.79	1.837
222.01	2.967
222.22	-0.000
222.44	-0.000
222.65	-0.000
222.87	-0.000
223.08	-0.000
223.29	-0.000
223.51	-0.000
223.72	-0.000
223.94	-0.000
224.15	-0.000
224.36	-0.000
224.58	-0.000
224.79	-0.000
225.01	-0.000
225.22	-0.000
225.44	-0.000
225.65	-0.000
225.86	-0.000
226.08	-0.000
226.29	-0.000
226.51	-0.000
226.72	-0.000
226.93	-0.000
227.15	-0.000
227.36	-0.000
227.58	-0.000
227.79	3.257
228.00	-0.000
228.22	-0.000
228.43	-0.000
228.65	-0.000
228.86	-0.000
229.07	-0.000
229.29	-0.000
229.50	-0.000
229.72	-0.000
229.93	-0.000
230.14	-0.000
230.36	-0.000
230.57	-0.000
230.78	-0.000
231.00	2.490
231.21	-0.000
231.43	2.840
231.64	-0.000
231.85	-0.000
232.07	-0.000
232.28	-0.000
232.50	2.524
232.71	2.654
232.92	-0.000
233.14	-0.000
233.35	-0.000
233.56	3.083
233.78	2.508
233.99	2.316
234.21	2.290
234.42	2.672
234.63	-0.000
234.85	-0.000
235.06	-0.000
235.27	-0.000
235.49	-0.000
235.70	2.760
235.91	2.261
236.13	2.563
236.34	3.002
236.56	2.724
236.77	2.813
236.98	2.411
237.20	2.573
237.41	2.654
237.62	2.415
237.84	2.587
238.05	2.956
238.26	3.304
238.48	2.934
238.69	2.782
238.91	3.262
239.12	-0.000
239.33	-0.000
239.55	-0.000
239.76	-0.000
239.97	3.610
240.19	3.406
240.40	3.397
240.61	3.224
240.83	2.654
241.04	2.563
241.25	2.626
241.47	3.068
241.68	2.841
241.89	2.933
242.11	3.081
242.32	3.731
242.53	-0.000
242.75	4.068
242.96	-0.000
243.17	-0.000
243.39	-0.000
243.60	-0.000
243.81	-0.000
244.03	-0.000
244.24	-0.000
244.45	-0.000
244.67	-0.000
244.88	-0.000
245.09	-0.000
245.31	-0.000
245.52	-0.000
245.73	-0.000
245.95	-0.000
246.16	3.388
246.37	4.266
246.59	3.026
246.80	3.464
247.01	3.392
247.23	3.429
247.44	-0.000
247.65	-0.000
247.87	-0.000
248.08	-0.000
248.29	4.663
248.51	-0.000
248.72	-0.000
248.93	-0.000
249.15	-0.000
249.36	-0.000
249.57	-0.000
249.78	-0.000
250.00	-0.000
250.21	-0.000
250.42	-0.000
250.64	-0.000
250.85	-0.000
251.06	-0.000
251.28	3.772
251.49	3.193
251.70	2.918
251.92	2.966
252.13	2.978
252.34	2.813
252.55	2.821
252.77	2.856
252.98	2.766
253.19	2.715
253.41	2.882
253.62	2.924
253.83	3.233
254.05	3.225
254.26	3.254
254.47	3.162
254.68	3.549
254.90	-0.000
255.11	-0.000
255.32	-0.000
255.54	-0.000
255.75	-0.000
255.96	-0.000
256.17	-0.000
256.39	-0.000
256.60	-0.000
256.81	-0.000
257.03	-0.000
257.24	-0.000
257.45	-0.000
257.66	-0.000
257.88	-0.000
258.09	-0.000
258.30	3.660
258.51	3.572
258.73	3.417
258.94	3.632
259.15	3.138
259.37	3.404
259.58	4.195
259.79	3.654
260.00	4.745
260.22	3.766
260.43	-0.000
260.64	-0.000
260.85	-0.000
261.07	-0.000
261.28	-0.000
261.49	-0.000
261.71	-0.000
261.92	-0.000
262.13	-0.000
262.34	-0.000
262.56	-0.000
262.77	-0.000
262.98	-0.000
263.19	3.853
263.41	3.755
263.62	-0.000
263.83	3.735
264.04	3.554
264.26	3.198
264.47	3.315
264.68	3.176
264.89	3.029
265.11	3.016
265.32	2.978
265.53	3.064
265.74	3.060
265.96	3.171
266.17	3.927
266.38	-0.000
266.59	-0.000
266.81	-0.000
267.02	-0.000
267.23	-0.000
267.44	-0.000
267.65	-0.000
267.87	-0.000
268.08	-0.000
268.29	-0.000
268.50	-0.000
268.72	-0.000
268.93	-0.000
269.14	4.073
269.35	3.397
269.57	3.341
269.78	3.231
269.99	3.321
270.20	4.063
270.41	3.466
270.63	3.389
270.84	3.457
271.05	3.520
271.26	-0.000
271.48	-0.000
271.69	-0.000
271.90	-0.000
272.11	-0.000
272.32	-0.000
272.54	3.984
272.75	-0.000
272.96	-0.000
273.17	-0.000
273.39	-0.000
273.60	3.422
273.81	3.267
274.02	3.123
274.23	3.095
274.45	3.147
274.66	3.136
274.87	2.992
275.08	2.962
275.29	3.050
275.51	3.116
275.72	3.200
275.93	3.210
276.14	3.143
276.35	3.244
276.57	3.226
276.78	3.148
276.99	3.264
277.20	3.372
277.41	3.434
277.63	3.298
277.84	3.219
278.05	3.383
278.26	3.849
278.47	-0.000
278.69	-0.000
278.90	-0.000
279.11	-0.000
279.32	-0.000
279.53	-0.000
279.74	-0.000
279.96	-0.000
280.17	-0.000
280.38	-0.000
280.59	4.125
280.80	4.181
281.02	3.968
281.23	3.715
281.44	3.847
281.65	4.441
281.86	3.891
282.07	-0.000
282.29	3.876
282.50	3.881
282.71	3.735
282.92	3.706
283.13	3.394
283.35	3.398
283.56	4.019
283.77	-0.000
283.98	3.704
284.19	-0.000
284.40	3.621
284.62	3.632
284.83	3.638
285.04	3.530
285.25	3.583
285.46	4.221
285.67	4.256
285.88	3.595
286.10	3.461
286.31	3.422
286.52	3.211
286.73	3.194
286.94	3.179
287.15	3.202
287.37	3.403
287.58	3.364
287.79	3.265
288.00	3.340
288.21	3.352
288.42	3.292
288.63	3.346
288.85	3.512
289.06	3.770
289.27	4.064
289.48	3.812
289.69	3.479
289.90	3.446
290.11	3.495
290.33	3.474
290.54	3.416
290.75	3.438
290.96	3.583
291.17	3.493
291.38	3.549
291.59	3.494
291.81	3.694
292.02	3.618
292.23	3.683
292.44	3.624
292.65	3.460
292.86	3.382
293.07	3.411
293.28	3.409
293.50	3.488
293.71	3.498
293.92	3.342
294.13	3.284
294.34	3.299
294.55	3.361
294.76	3.379
294.97	3.534
295.19	3.550
295.40	3.650
295.61	3.539
295.82	3.541
296.03	3.633
296.24	4.222
296.45	4.125
296.66	3.762
296.87	3.692
297.09	3.731
297.30	3.624
297.51	3.744
297.72	3.840
297.93	3.908
298.14	4.001
298.35	3.674
298.56	3.539
298.77	3.430
298.99	3.518
299.20	3.564
299.41	3.530
299.62	3.626
299.83	3.666
300.04	3.508
300.25	3.402
300.46	3.299
300.67	3.374
300.88	3.368
301.10	3.438
301.31	3.570
301.52	3.549
301.73	3.611
301.94	3.477
302.15	3.445
302.36	3.382
302.57	3.529
302.78	3.581
302.99	3.587
303.20	3.598
303.41	3.654
303.63	3.545
303.84	3.565
304.05	3.592
304.26	3.611
304.47	3.793
304.68	4.073
304.89	4.104
305.10	4.936
305.31	6.237
305.52	-0.000
305.73	-0.000
305.94	-0.000
306.15	-0.000
306.37	-0.000
306.58	-0.000
306.79	-0.000
307.00	-0.000
307.21	4.029
307.42	3.988
307.63	3.894
307.84	3.765
308.05	3.773
308.26	3.720
308.47	3.666
308.68	3.508
308.89	3.374
309.10	3.428
309.31	3.558
309.52	3.662
309.73	3.612
309.95	3.538
310.16	3.537
310.37	3.502
310.58	3.442
310.79	3.439
311.00	3.526
311.21	3.634
311.42	3.657
311.63	3.668
311.84	3.616
312.05	3.636
312.26	3.842
312.47	3.751
312.68	3.853
312.89	4.079
313.10	4.195
313.31	3.991
313.52	3.738
313.73	3.692
313.94	3.583
314.15	3.619
314.36	3.625
314.57	3.478
314.78	3.560
314.99	3.450
315.21	3.433
315.42	3.377
315.63	3.400
315.84	3.389
316.05	3.385
316.26	3.416
316.47	3.415
316.68	3.416
316.89	3.422
317.10	3.408
317.31	3.476
317.52	3.449
317.73	3.438
317.94	3.443
318.15	3.449
318.36	3.439
318.57	3.390
318.78	3.456
318.99	3.380
319.20	3.402
319.41	3.355
319.62	3.306
319.83	3.302
320.04	3.320
320.25	3.253
320.46	3.295
320.67	3.388
320.88	3.351
321.09	3.246
321.30	3.258
321.51	3.257
321.72	3.299
321.93	3.304
322.14	3.302
322.35	3.310
322.56	3.324
322.77	3.361
322.98	3.316
323.19	3.385
323.40	3.443
323.61	3.486
323.82	3.488
324.03	3.507
324.24	3.501
324.45	3.562
324.66	3.674
324.87	3.721
325.08	3.640
325.29	3.546
325.50	3.519
325.71	3.659
325.92	3.667
326.13	3.705
326.34	3.672
326.55	3.657
326.76	3.610
326.97	3.487
327.18	3.567
327.39	3.608
327.60	3.558
327.80	3.564
328.01	3.510
328.22	3.536
328.43	3.503
328.64	3.497
328.85	3.587
329.06	3.598
329.27	3.591
329.48	3.573
329.69	3.532
329.90	3.601
330.11	3.543
330.32	3.501
330.53	3.444
330.74	3.411
330.95	3.414
331.16	3.355
331.37	3.359
331.58	3.396
331.79	3.377
332.00	3.406
332.21	3.424
332.42	3.470
332.63	3.471
332.83	3.458
333.04	3.466
333.25	3.432
333.46	3.398
333.67	3.390
333.88	3.379
334.09	3.422
334.30	3.379
334.51	3.408
334.72	3.403
334.93	3.359
335.14	3.386
335.35	3.395
335.56	3.489
335.77	3.538
335.98	3.500
336.18	3.439
336.39	3.393
336.60	3.401
336.81	3.370
337.02	3.336
337.23	3.373
337.44	3.348
337.65	3.405
337.86	3.341
338.07	3.366
338.28	3.352
338.49	3.388
338.70	3.455
338.91	3.466
339.11	3.458
339.32	3.587
339.53	3.562
339.74	3.616
339.95	3.577
340.16	3.534
340.37	3.588
340.58	3.673
340.79	3.720
341.00	3.588
341.21	3.593
341.41	3.589
341.62	3.456
341.83	3.471
342.04	3.506
342.25	3.470
342.46	3.520
342.67	3.467
342.88	3.507
343.09	3.449
343.30	3.489
343.50	3.476
343.71	3.496
343.92	3.555
344.13	3.555
344.34	3.467
344.55	3.488
344.76	3.503
344.97	3.462
345.18	3.479
345.38	3.429
345.59	3.360
345.80	3.313
346.01	3.313
346.22	3.362
346.43	3.344
346.64	3.396
346.85	3.370
347.06	3.332
347.26	3.361
347.47	3.332
347.68	3.358
347.89	3.374
348.10	3.422
348.31	3.403
348.52	3.331
348.73	3.318
348.93	3.286
349.14	3.264
349.35	3.263
349.56	3.252
349.77	3.234
349.98	3.255
350.19	3.279
350.39	3.266
350.60	3.249
350.81	3.308
351.02	3.356
351.23	3.379
351.44	3.406
351.65	3.417
351.86	3.409
352.06	3.386
352.27	3.398
352.48	3.387
352.69	3.448
352.90	3.425
353.11	3.401
353.31	3.397
353.52	3.345
353.73	3.388
353.94	3.401
354.15	3.394
354.36	3.429
354.57	3.444
354.77	3.456
354.98	3.397
355.19	3.435
355.40	3.408
355.61	3.375
355.82	3.382
356.02	3.323
356.23	3.312
356.44	3.337
356.65	3.309
356.86	3.282
357.07	3.285
357.27	3.320
357.48	3.283
357.69	3.309
357.90	3.304
358.11	3.341
358.32	3.329
358.52	3.356
358.73	3.327
358.94	3.310
359.15	3.292
359.36	3.322
359.56	3.273
359.77	3.319
359.98	3.242
360.19	3.257
360.40	3.284
360.61	3.339
360.81	3.374
361.02	3.372
361.23	3.462
361.44	3.456
361.65	3.392
361.85	3.447
362.06	3.419
362.27	3.523
362.48	3.501
362.69	3.433
362.89	3.386
363.10	3.315
363.31	3.276
363.52	3.241
363.73	3.228
363.93	3.227
364.14	3.214
364.35	3.213
364.56	3.210
364.77	3.199
364.97	3.199
365.18	3.193
365.39	3.202
365.60	3.241
365.81	3.226
366.01	3.247
366.22	3.235
366.43	3.198
366.64	3.214
366.84	3.174
367.05	3.199
367.26	3.171
367.47	3.196
367.68	3.230
367.88	3.230
368.09	3.281
368.30	3.311
368.51	3.330
368.71	3.383
368.92	3.378
369.13	3.444
369.34	3.408
369.55	3.424
369.75	3.412
369.96	3.364
370.17	3.352
370.38	3.321
370.58	3.280
370.79	3.264
371.00	3.286
371.21	3.314
371.41	3.268
371.62	3.268
371.83	3.303
372.04	3.309
372.24	3.314
372.45	3.337
372.66	3.316
372.87	3.310
373.07	3.348
373.28	3.340
373.49	3.332
373.70	3.352
373.90	3.377
374.11	3.377
374.32	3.357
374.53	3.354
374.73	3.374
374.94	3.390
375.15	3.446
375.36	3.421
375.56	3.407
375.77	3.432
375.98	3.476
376.19	3.446
376.39	3.434
376.60	3.397
376.81	3.368
377.02	3.344
377.22	3.331
377.43	3.333
377.64	3.317
377.84	3.271
378.05	3.233
378.26	3.184
378.47	3.184
378.67	3.188
378.88	3.201
379.09	3.197
379.30	3.187
379.50	3.176
379.71	3.175
379.92	3.206
380.12	3.229
380.33	3.163
380.54	3.184
380.75	3.201
380.95	3.183
381.16	3.200
381.37	3.231
381.57	3.236
381.78	3.209
381.99	3.174
382.20	3.144
382.40	3.141
382.61	3.190
382.82	3.173
383.02	3.154
383.23	3.174
383.44	3.148
383.64	3.166
383.85	3.152
384.06	3.187
384.27	3.192
384.47	3.181
384.68	3.173
384.89	3.164
385.09	3.175
385.30	3.191
385.51	3.204
385.71	3.232
385.92	3.215
386.13	3.204
386.33	3.144
386.54	3.166
386.75	3.188
386.95	3.223
387.16	3.244
387.37	3.251
387.58	3.190
387.78	3.165
387.99	3.182
388.20	3.190
388.40	3.188
388.61	3.244
388.82	3.216
389.02	3.190
389.23	3.176
389.44	3.154
389.64	3.155
389.85	3.188
390.06	3.213
390.26	3.204
390.47	3.175
390.68	3.195
390.88	3.180
391.09	3.199
391.30	3.226
391.50	3.205
391.71	3.218
391.92	3.217
392.12	3.217
392.33	3.198
392.53	3.201
392.74	3.209
392.95	3.191
393.15	3.195
393.36	3.193
393.57	3.184
393.77	3.194
393.98	3.185
394.19	3.172
394.39	3.162
394.60	3.150
394.81	3.119
395.01	3.112
395.22	3.180
395.43	3.206
395.63	3.199
395.84	3.223
396.04	3.188
396.25	3.210
396.46	3.218
396.66	3.219
396.87	3.223
397.08	3.242
397.28	3.223
397.49	3.167
397.69	3.156
397.90	3.133
398.11	3.121
398.31	3.170
398.52	3.134
398.73	3.100
398.93	3.125
399.14	3.110
399.34	3.106
399.55	3.122
399.76	3.121
399.96	3.105
400.17	3.102
400.37	3.095
400.58	3.086
400.79	3.108
400.99	3.135
401.20	3.127
401.41	3.122
401.61	3.135
401.82	3.116
402.02	3.087
402.23	3.098
402.44	3.091
402.64	3.085
402.85	3.058
403.05	3.083
403.26	3.069
403.47	3.070
403.67	3.088
403.88	3.098
404.08	3.121
404.29	3.145
404.50	3.141
404.70	3.201
404.91	3.196
405.11	3.197
405.32	3.184
405.52	3.171
405.73	3.158
405.94	3.154
406.14	3.106
406.35	3.100
406.55	3.083
406.76	3.067
406.97	3.041
407.17	3.061
407.38	3.054
407.58	3.042
407.79	3.059
407.99	3.056
408.20	3.065
408.41	3.058
408.61	3.056
408.82	3.075
409.02	3.086
409.23	3.085
409.43	3.044
409.64	3.075
409.84	3.092
410.05	3.117
410.26	3.115
410.46	3.109
410.67	3.119
410.87	3.106
411.08	3.105
411.28	3.118
411.49	3.116
411.69	3.157
411.90	3.127
412.11	3.102
412.31	3.070
412.52	3.082
412.72	3.090
412.93	3.095
413.13	3.127
413.34	3.114
413.54	3.095
413.75	3.063
413.95	3.042
414.16	3.058
414.37	3.029
414.57	3.028
414.78	2.995
414.98	2.970
415.19	2.964
415.39	2.915
415.60	2.916
415.80	2.931
416.01	2.941
416.21	2.959
416.42	2.960
416.62	2.973
416.83	2.992
417.03	3.008
417.24	3.033
417.44	3.059
417.65	3.086
417.86	3.090
418.06	3.080
418.27	3.091
418.47	3.049
418.68	3.052
418.88	3.060
419.09	3.034
419.29	3.031
419.50	3.000
419.70	2.991
419.91	3.016
420.11	3.013
420.32	2.984
420.52	3.003
420.73	3.052
420.93	3.030
421.14	3.062
421.34	3.105
421.55	3.141
421.75	3.186
421.96	3.205
422.16	3.176
422.37	3.170
422.57	3.208
422.78	3.198
422.98	3.175
423.19	3.215
423.39	3.148
423.60	3.106
423.80	3.078
424.01	3.054
424.21	3.044
424.42	3.058
424.62	3.084
424.83	3.061
425.03	3.083
425.23	3.080
425.44	3.070
425.64	3.099
425.85	3.085
426.05	3.103
426.26	3.118
426.46	3.112
426.67	3.080
426.87	3.045
427.08	3.027
427.28	2.999
427.49	3.004
427.69	2.979
427.90	2.966
428.10	2.971
428.31	2.957
428.51	2.948
428.71	2.931
428.92	2.959
429.12	2.978
429.33	3.001
429.53	3.017
429.74	3.001
429.94	3.007
430.15	3.005
430.35	3.000
430.56	2.987
430.76	3.003
430.96	3.011
431.17	2.986
431.37	2.977
431.58	2.968
431.78	2.951
431.99	2.959
432.19	2.953
432.40	2.955
432.60	2.979
432.80	2.980
433.01	2.962
433.21	2.936
433.42	2.946
433.62	2.942
433.83	2.941
434.03	2.941
434.23	2.922
434.44	2.918
434.64	2.904
434.85	2.882
435.05	2.877
435.26	2.881
435.46	2.898
435.66	2.890
435.87	2.896
436.07	2.912
436.28	2.907
436.48	2.900
436.69	2.916
436.89	2.933
437.09	2.959
437.30	2.967
437.50	2.950
437.71	2.970
437.91	2.967
438.11	2.964
438.32	2.965
438.52	2.992
438.73	3.001
438.93	3.003
439.13	3.030
439.34	3.022
439.54	3.037
439.75	3.045
439.95	3.022
440.15	3.033
440.36	3.035
440.56	3.053
440.77	3.029
440.97	3.057
441.17	3.040
441.38	3.015
441.58	3.026
441.79	3.022
441.99	3.028
442.19	3.021
442.40	2.989
442.60	2.968
442.81	2.951
443.01	2.949
443.21	2.927
443.42	2.919
443.62	2.907
443.82	2.882
444.03	2.883
444.23	2.887
444.44	2.900
444.64	2.926
444.84	2.936
445.05	2.918
445.25	2.912
445.45	2.917
445.66	2.935
445.86	2.934
446.06	2.933
446.27	2.908
446.47	2.890
446.68	2.880
446.88	2.894
447.08	2.884
447.29	2.906
447.49	2.896
447.69	2.914
447.90	2.901
448.10	2.897
448.30	2.897
448.51	2.901
448.71	2.913
448.91	2.919
449.12	2.901
449.32	2.907
449.52	2.914
449.73	2.913
449.93	2.918
450.14	2.907
450.34	2.915
450.54	2.924
450.75	2.922
450.95	2.927
451.15	2.926
451.36	2.913
451.56	2.920
451.76	2.903
451.97	2.921
452.17	2.909
452.37	2.898
452.58	2.888
452.78	2.874
452.98	2.874
453.19	2.866
453.39	2.865
453.59	2.887
453.79	2.884
454.00	2.886
454.20	2.882
454.40	2.849
454.61	2.856
454.81	2.859
455.01	2.871
455.22	2.880
455.42	2.874
455.62	2.882
455.83	2.867
456.03	2.858
456.23	2.844
456.44	2.838
456.64	2.851
456.84	2.859
457.04	2.854
457.25	2.852
457.45	2.860
457.65	2.882
457.86	2.869
458.06	2.872
458.26	2.885
458.47	2.869
458.67	2.875
458.87	2.878
459.07	2.895
459.28	2.918
459.48	2.923
459.68	2.904
459.89	2.871
460.09	2.861
460.29	2.850
460.49	2.838
460.70	2.851
460.90	2.851
461.10	2.845
461.31	2.853
461.51	2.837
461.71	2.813
461.91	2.811
462.12	2.826
462.32	2.828
462.52	2.822
462.72	2.831
462.93	2.832
463.13	2.829
463.33	2.842
463.53	2.815
463.74	2.813
463.94	2.846
464.14	2.850
464.35	2.850
464.55	2.865
464.75	2.868
464.95	2.853
465.16	2.872
465.36	2.881
465.56	2.872
465.76	2.868
465.97	2.876
466.17	2.850
466.37	2.841
466.57	2.845
466.78	2.814
466.98	2.815
467.18	2.817
467.38	2.798
467.59	2.776
467.79	2.771
467.99	2.780
468.19	2.779
468.39	2.795
468.60	2.806
468.80	2.808
469.00	2.826
469.20	2.830
469.41	2.829
469.61	2.815
469.81	2.830
470.01	2.838
470.22	2.838
470.42	2.846
470.62	2.839
470.82	2.835
471.02	2.839
471.23	2.849
471.43	2.839
471.63	2.843
471.83	2.854
472.04	2.855
472.24	2.842
472.44	2.836
472.64	2.832
472.84	2.822
473.05	2.832
473.25	2.809
473.45	2.796
473.65	2.811
473.85	2.817
474.06	2.823
474.26	2.814
474.46	2.818
474.66	2.816
474.86	2.807
475.07	2.816
475.27	2.809
475.47	2.816
475.67	2.840
475.87	2.834
476.08	2.803
476.28	2.783
476.48	2.781
476.68	2.787
476.88	2.794
477.09	2.792
477.29	2.782
477.49	2.787
477.69	2.786
477.89	2.762
478.09	2.767
478.30	2.792
478.50	2.805
478.70	2.815
478.90	2.796
479.10	2.789
479.31	2.790
479.51	2.799
479.71	2.780
479.91	2.775
480.11	2.790
480.31	2.780
480.52	2.772
480.72	2.775
480.92	2.762
481.12	2.778
481.32	2.773
481.52	2.773
481.72	2.763
481.93	2.777
482.13	2.784
482.33	2.782
482.53	2.794
482.73	2.789
482.93	2.794
483.14	2.795
483.34	2.782
483.54	2.788
483.74	2.781
483.94	2.787
484.14	2.792
484.34	2.798
484.55	2.787
484.75	2.779
484.95	2.793
485.15	2.802
485.35	2.817
485.55	2.827
485.75	2.822
485.96	2.835
486.16	2.822
486.36	2.820
486.56	2.816
486.76	2.826
486.96	2.826
487.16	2.809
487.36	2.792
487.57	2.780
487.77	2.777
487.97	2.777
488.17	2.775
488.37	2.777
488.57	2.773
488.77	2.768
488.97	2.759
489.18	2.756
489.38	2.754
489.58	2.751
489.78	2.749
489.98	2.748
490.18	2.745
490.38	2.729
490.58	2.729
490.78	2.717
490.98	2.705
491.19	2.708
491.39	2.711
491.59	2.714
491.79	2.719
491.99	2.732
492.19	2.733
492.39	2.741
492.59	2.748
492.79	2.750
492.99	2.757
493.20	2.776
493.40	2.768
493.60	2.756
493.80	2.767
494.00	2.759
494.20	2.753
494.40	2.743
494.60	2.737
494.80	2.737
495.00	2.746
495.20	2.746
495.40	2.731
495.61	2.735
495.81	2.742
496.01	2.727
496.21	2.728
496.41	2.728
496.61	2.736
496.81	2.735
497.01	2.736
497.21	2.727
497.41	2.726
497.61	2.731
497.81	2.725
498.01	2.723
498.21	2.726
498.41	2.728
498.61	2.728
498.82	2.728
499.02	2.722
499.22	2.721
499.42	2.721
499.62	2.726
499.82	2.731
500.02	2.742
500.22	2.746
500.42	2.746
500.62	2.739
500.82	2.746
501.02	2.744
501.22	2.762
501.42	2.759
501.62	2.767
501.82	2.760
502.02	2.757
502.22	2.760
502.42	2.753
502.62	2.757
502.82	2.759
503.02	2.734
503.22	2.729
503.42	2.720
503.63	2.722
503.83	2.711
504.03	2.710
504.23	2.712
504.43	2.706
504.63	2.707
504.83	2.707
505.03	2.709
505.23	2.737
505.43	2.737
505.63	2.738
505.83	2.734
506.03	2.738
506.23	2.740
506.43	2.742
506.63	2.742
506.83	2.749
507.03	2.744
507.23	2.751
507.43	2.741
507.63	2.735
507.83	2.739
508.03	2.746
508.23	2.749
508.43	2.747
508.63	2.749
508.83	2.750
509.03	2.736
509.23	2.733
509.43	2.729
509.63	2.714
509.83	2.719
510.03	2.709
510.23	2.701
510.43	2.695
510.63	2.697
510.83	2.688
511.03	2.686
511.23	2.694
511.43	2.695
511.63	2.687
511.83	2.700
512.03	2.702
512.22	2.701
512.42	2.711
512.62	2.710
512.82	2.718
513.02	2.717
513.22	2.711
513.42	2.711
513.62	2.723
513.82	2.720
514.02	2.719
514.22	2.719
514.42	2.717
514.62	2.707
514.82	2.718
515.02	2.708
515.22	2.711
515.42	2.714
515.62	2.704
515.82	2.699
516.02	2.704
516.22	2.699
516.42	2.696
516.62	2.695
516.82	2.707
517.01	2.692
517.21	2.688
517.41	2.688
517.61	2.691
517.81	2.700
518.01	2.689
518.21	2.684
518.41	2.687
518.61	2.686
518.81	2.685
519.01	2.666
519.21	2.665
519.41	2.670
519.61	2.665
519.81	2.654
520.00	2.655
520.20	2.663
520.40	2.659
520.60	2.658
520.80	2.661
521.00	2.650
521.20	2.658
521.40	2.659
521.60	2.655
521.80	2.657
522.00	2.656
522.20	2.647
522.39	2.642
522.59	2.645
522.79	2.647
522.99	2.647
523.19	2.655
523.39	2.647
523.59	2.646
523.79	2.647
523.99	2.651
524.19	2.653
524.38	2.660
524.58	2.668
524.78	2.668
524.98	2.654
525.18	2.646
525.38	2.658
525.58	2.654
525.78	2.652
525.98	2.638
526.18	2.630
526.37	2.635
526.57	2.630
526.77	2.620
526.97	2.622
527.17	2.624
527.37	2.624
527.57	2.612
527.77	2.619
527.96	2.633
528.16	2.648
528.36	2.646
528.56	2.637
528.76	2.638
528.96	2.640
529.16	2.630
529.36	2.633
529.55	2.642
529.75	2.642
529.95	2.645
530.15	2.624
530.35	2.623
530.55	2.619
530.75	2.618
530.94	2.608
531.14	2.606
531.34	2.608
531.54	2.606
531.74	2.607
531.94	2.609
532.13	2.614
532.33	2.623
532.53	2.609
532.73	2.602
532.93	2.605
533.13	2.596
533.33	2.602
533.52	2.612
533.72	2.609
533.92	2.602
534.12	2.596
534.32	2.584
534.52	2.586
534.71	2.580
534.91	2.590
535.11	2.582
535.31	2.581
535.51	2.569
535.71	2.550
535.90	2.548
536.10	2.546
536.30	2.548
536.50	2.551
536.70	2.545
536.89	2.560
537.09	2.553
537.29	2.563
537.49	2.579
537.69	2.590
537.89	2.602
538.08	2.606
538.28	2.610
538.48	2.616
538.68	2.611
538.88	2.612
539.07	2.615
539.27	2.620
539.47	2.615
539.67	2.615
539.87	2.617
540.06	2.617
540.26	2.623
540.46	2.625
540.66	2.631
540.86	2.634
541.05	2.631
541.25	2.625
541.45	2.620
541.65	2.625
541.84	2.628
542.04	2.628
542.24	2.632
542.44	2.628
542.64	2.619
542.83	2.614
543.03	2.624
543.23	2.632
543.43	2.630
543.62	2.637
543.82	2.632
544.02	2.622
544.22	2.620
544.42	2.610
544.61	2.609
544.81	2.617
545.01	2.621
545.21	2.618
545.40	2.618
545.60	2.621
545.80	2.620
546.00	2.628
546.19	2.634
546.39	2.635
546.59	2.645
546.79	2.650
546.98	2.649
547.18	2.643
547.38	2.651
547.58	2.655
547.77	2.662
547.97	2.667
548.17	2.661
548.37	2.667
548.56	2.669
548.76	2.653
548.96	2.654
549.16	2.660
549.35	2.666
549.55	2.647
549.75	2.647
549.95	2.641
550.14	2.636
550.34	2.636
550.54	2.633
550.73	2.631
550.93	2.640
551.13	2.642
551.33	2.629
551.52	2.621
551.72	2.632
551.92	2.625
552.12	2.627
552.31	2.629
552.51	2.639
552.71	2.634
552.90	2.629
553.10	2.628
553.30	2.630
553.50	2.635
553.69	2.643
553.89	2.637
554.09	2.637
554.28	2.635
554.48	2.638
554.68	2.622
554.87	2.619
555.07	2.629
555.27	2.632
555.47	2.615
555.66	2.620
555.86	2.618
556.06	2.606
556.25	2.600
556.45	2.595
556.65	2.600
556.84	2.602
557.04	2.598
557.24	2.585
557.43	2.586
557.63	2.597
557.83	2.606
558.02	2.601
558.22	2.611
558.42	2.618
558.61	2.615
558.81	2.606
559.01	2.608
559.21	2.620
559.40	2.623
559.60	2.630
559.80	2.632
559.99	2.624
560.19	2.632
560.39	2.646
560.58	2.651
560.78	2.653
560.97	2.655
561.17	2.665
561.37	2.657
561.56	2.666
561.76	2.656
561.96	2.649
562.15	2.649
562.35	2.650
562.55	2.643
562.74	2.647
562.94	2.656
563.14	2.660
563.33	2.645
563.53	2.656
563.73	2.647
563.92	2.656
564.12	2.659
564.31	2.656
564.51	2.649
564.71	2.646
564.90	2.650
565.10	2.636
565.30	2.628
565.49	2.637
565.69	2.628
565.89	2.627
566.08	2.633
566.28	2.634
566.47	2.631
566.67	2.634
566.87	2.634
567.06	2.622
567.26	2.635
567.46	2.647
567.65	2.652
567.85	2.651
568.04	2.660
568.24	2.658
568.44	2.656
568.63	2.660
568.83	2.661
569.02	2.673
569.22	2.684
569.42	2.684
569.61	2.681
569.81	2.676
570.00	2.694
570.20	2.699
570.40	2.689
570.59	2.703
570.79	2.712
570.98	2.714
571.18	2.711
571.38	2.720
571.57	2.733
571.77	2.736
571.96	2.747
572.16	2.750
572.35	2.748
572.55	2.759
572.75	2.759
572.94	2.760
573.14	2.758
573.33	2.764
573.53	2.762
573.73	2.753
573.92	2.751
574.12	2.756
574.31	2.746
574.51	2.749
574.70	2.745
574.90	2.740
575.09	2.733
575.29	2.736
575.49	2.730
575.68	2.719
575.88	2.727
576.07	2.733
576.27	2.728
576.46	2.727
576.66	2.724
576.86	2.733
577.05	2.743
577.25	2.753
577.44	2.754
577.64	2.756
577.83	2.765
578.03	2.752
578.22	2.749
578.42	2.742
578.61	2.746
578.81	2.744
579.00	2.734
579.20	2.720
579.40	2.707
579.59	2.703
579.79	2.701
579.98	2.696
580.18	2.699
580.37	2.696
580.57	2.690
580.76	2.692
580.96	2.689
581.15	2.688
581.35	2.697
581.54	2.694
581.74	2.693
581.93	2.695
582.13	2.691
582.32	2.688
582.52	2.693
582.71	2.696
582.91	2.693
583.10	2.694
583.30	2.697
583.49	2.690
583.69	2.704
583.88	2.704
584.08	2.705
584.27	2.714
584.47	2.713
584.66	2.710
584.86	2.717
585.05	2.729
585.25	2.721
585.44	2.721
585.64	2.721
585.83	2.714
586.03	2.717
586.22	2.716
586.42	2.715
586.61	2.725
586.81	2.719
587.00	2.719
587.20	2.710
587.39	2.717
587.59	2.722
587.78	2.714
587.98	2.715
588.17	2.708
588.37	2.700
588.56	2.688
588.76	2.670
588.95	2.664
589.15	2.656
589.34	2.648
589.54	2.645
589.73	2.639
589.92	2.642
590.12	2.637
590.31	2.634
590.51	2.630
590.70	2.630
590.90	2.637
591.09	2.642
591.29	2.640
591.48	2.649
591.68	2.651
591.87	2.646
592.06	2.649
592.26	2.649
592.45	2.655
592.65	2.663
592.84	2.667
593.04	2.678
593.23	2.686
593.43	2.690
593.62	2.692
593.81	2.689
594.01	2.692
594.20	2.694
594.40	2.698
594.59	2.701
594.79	2.706
594.98	2.715
595.17	2.702
595.37	2.698
595.56	2.699
595.76	2.694
595.95	2.702
596.14	2.699
596.34	2.699
596.53	2.700
596.73	2.693
596.92	2.683
597.12	2.675
597.31	2.672
597.50	2.671
597.70	2.673
597.89	2.678
598.09	2.680
598.28	2.692
598.47	2.694
598.67	2.696
598.86	2.701
599.06	2.712
599.25	2.715
599.44	2.734
599.64	2.738
599.83	2.738
600.03	2.735
600.22	2.729
600.41	2.719
600.61	2.716
600.80	2.722
601.00	2.721
601.19	2.717
601.38	2.717
601.58	2.706
601.77	2.709
601.96	2.709
602.16	2.709
602.35	2.716
602.55	2.722
602.74	2.730
602.93	2.722
603.13	2.723
603.32	2.717
603.51	2.708
603.71	2.708
603.90	2.705
604.09	2.704
604.29	2.700
604.48	2.693
604.68	2.684
604.87	2.678
605.06	2.675
605.26	2.678
605.45	2.678
605.64	2.681
605.84	2.674
606.03	2.677
606.22	2.684
606.42	2.701
606.61	2.695
606.80	2.704
607.00	2.697
607.19	2.708
607.38	2.711
607.58	2.713
607.77	2.713
607.96	2.712
608.16	2.711
608.35	2.706
608.54	2.688
608.74	2.704
608.93	2.695
609.12	2.698
609.32	2.696
609.51	2.688
609.70	2.687
609.90	2.682
610.09	2.692
610.28	2.677
610.48	2.666
610.67	2.663
610.86	2.649
611.06	2.661
611.25	2.671
611.44	2.658
611.64	2.652
611.83	2.654
612.02	2.662
612.21	2.656
612.41	2.667
612.60	2.677
612.79	2.685
612.99	2.691
613.18	2.685
613.37	2.678
613.57	2.680
613.76	2.682
613.95	2.681
614.14	2.691
614.34	2.688
614.53	2.692
614.72	2.689
614.92	2.685
615.11	2.677
615.30	2.662
615.49	2.666
615.69	2.677
615.88	2.687
616.07	2.684
616.26	2.666
616.46	2.665
616.65	2.653
616.84	2.662
617.04	2.670
617.23	2.669
617.42	2.688
617.61	2.677
617.81	2.668
618.00	2.662
618.19	2.663
618.38	2.663
618.58	2.675
618.77	2.679
618.96	2.668
619.15	2.647
619.35	2.653
619.54	2.644
619.73	2.641
619.92	2.633
620.12	2.638
620.31	2.627
620.50	2.627
620.69	2.624
620.89	2.620
621.08	2.621
621.27	2.632
621.46	2.639
621.66	2.641
621.85	2.659
622.04	2.666
622.23	2.651
622.43	2.673
622.62	2.681
622.81	2.679
623.00	2.690
623.19	2.686
623.39	2.684
623.58	2.664
623.77	2.665
623.96	2.656
624.16	2.642
624.35	2.647
624.54	2.633
624.73	2.632
624.92	2.633
625.12	2.641
625.31	2.652
625.50	2.649
625.69	2.659
625.88	2.658
626.08	2.659
626.27	2.676
626.46	2.679
626.65	2.683
626.84	2.686
627.04	2.689
627.23	2.683
627.42	2.664
627.61	2.675
627.80	2.688
628.00	2.703
628.19	2.697
628.38	2.705
628.57	2.712
628.76	2.709
628.96	2.707
629.15	2.700
629.34	2.699
629.53	2.695
629.72	2.681
629.91	2.664
630.11	2.650
630.30	2.645
630.49	2.636
630.68	2.617
630.87	2.626
631.06	2.623
631.26	2.624
631.45	2.611
631.64	2.626
631.83	2.626
632.02	2.638
632.21	2.641
632.41	2.647
632.60	2.633
632.79	2.656
632.98	2.635
633.17	2.641
633.36	2.645
633.55	2.651
633.75	2.655
633.94	2.665
634.13	2.655
634.32	2.652
634.51	2.645
634.70	2.656
634.89	2.636
635.09	2.654
635.28	2.654
635.47	2.652
635.66	2.645
635.85	2.648
636.04	2.649
636.23	2.654
636.43	2.655
636.62	2.663
636.81	2.666
637.00	2.664
637.19	2.656
637.38	2.643
637.57	2.633
637.76	2.643
637.95	2.636
638.15	2.630
638.34	2.637
638.53	2.650
638.72	2.654
638.91	2.655
639.10	2.675
639.29	2.681
639.48	2.703
639.67	2.711
639.87	2.701
640.06	2.690
640.25	2.691
640.44	2.686
640.63	2.671
640.82	2.669
641.01	2.666
641.20	2.657
641.39	2.658
641.58	2.642
641.78	2.644
641.97	2.651
642.16	2.659
642.35	2.661
642.54	2.655
642.73	2.662
642.92	2.673
643.11	2.681
643.30	2.699
643.49	2.704
643.68	2.707
643.87	2.709
644.06	2.719
644.25	2.706
644.45	2.688
644.64	2.690
644.83	2.695
645.02	2.687
645.21	2.686
645.40	2.681
645.59	2.658
645.78	2.661
645.97	2.655
646.16	2.659
646.35	2.664
646.54	2.673
646.73	2.686
646.92	2.673
647.11	2.669
647.30	2.677
647.49	2.665
647.68	2.686
647.88	2.694
648.07	2.704
648.26	2.697
648.45	2.713
648.64	2.719
648.83	2.712
649.02	2.728
649.21	2.737
649.40	2.726
649.59	2.735
649.78	2.738
649.97	2.742
650.16	2.729
650.35	2.724
650.54	2.716
650.73	2.707
650.92	2.711
651.11	2.707
651.30	2.702
651.49	2.707
651.68	2.726
651.87	2.726
652.06	2.725
652.25	2.727
652.44	2.724
652.63	2.741
652.82	2.763
653.01	2.750
653.20	2.750
653.39	2.755
653.58	2.740
653.77	2.743
653.96	2.733
654.15	2.730
654.34	2.744
654.53	2.751
654.72	2.747
654.91	2.753
655.10	2.759
655.29	2.757
655.48	2.756
655.67	2.765
655.86	2.764
656.05	2.775
656.24	2.769
656.43	2.767
656.62	2.769
656.81	2.772
657.00	2.758
657.19	2.756
657.38	2.758
657.57	2.763
657.76	2.760
657.95	2.744
658.14	2.733
658.33	2.735
658.51	2.737
658.70	2.729
658.89	2.713
659.08	2.731
659.27	2.736
659.46	2.733
659.65	2.726
659.84	2.726
660.03	2.722
660.22	2.719
660.41	2.705
660.60	2.680
660.79	2.673
660.98	2.698
661.17	2.677
661.36	2.692
661.55	2.681
661.74	2.680
661.92	2.679
662.11	2.678
662.30	2.673
662.49	2.684
662.68	2.706
662.87	2.716
663.06	2.683
663.25	2.691
663.44	2.689
663.63	2.665
663.82	2.672
664.01	2.680
664.20	2.690
664.38	2.702
664.57	2.705
664.76	2.706
664.95	2.712
665.14	2.724
665.33	2.714
665.52	2.723
665.71	2.759
665.90	2.764
666.09	2.757
666.28	2.764
666.46	2.760
666.65	2.768
666.84	2.750
667.03	2.760
667.22	2.774
667.41	2.785
667.60	2.741
667.79	2.717
667.98	2.697
668.16	2.712
668.35	2.724
668.54	2.723
668.73	2.714
668.92	2.725
669.11	2.705
669.30	2.706
669.49	2.696
669.67	2.692
669.86	2.716
670.05	2.747
670.24	2.723
670.43	2.700
670.62	2.688
670.81	2.691
671.00	2.695
671.18	2.702
671.37	2.696
671.56	2.722
671.75	2.733
671.94	2.746
672.13	2.718
672.32	2.723
672.50	2.746
672.69	2.759
672.88	2.764
673.07	2.765
673.26	2.752
673.45	2.748
673.63	2.751
673.82	2.759
674.01	2.740
674.20	2.753
674.39	2.778
674.58	2.755
674.76	2.749
674.95	2.753
675.14	2.766
675.33	2.775
675.52	2.768
675.71	2.750
675.89	2.767
676.08	2.771
676.27	2.756
676.46	2.742
676.65	2.769
676.84	2.791
677.02	2.809
677.21	2.782
677.40	2.789
677.59	2.812
677.78	2.832
677.96	2.811
678.15	2.798
678.34	2.800
678.53	2.784
678.72	2.768
678.90	2.748
679.09	2.732
679.28	2.736
679.47	2.736
679.66	2.712
679.84	2.693
680.03	2.694
680.22	2.709
680.41	2.718
680.60	2.717
680.78	2.723
680.97	2.737
681.16	2.736
681.35	2.737
681.53	2.738
681.72	2.748
681.91	2.753
682.10	2.769
682.29	2.739
682.47	2.742
682.66	2.769
682.85	2.777
683.04	2.773
683.22	2.778
683.41	2.786
683.60	2.788
683.79	2.783
683.97	2.775
684.16	2.773
684.35	2.806
684.54	2.800
684.72	2.785
684.91	2.768
685.10	2.761
685.29	2.776
685.47	2.791
685.66	2.783
685.85	2.788
686.04	2.792
686.22	2.794
686.41	2.785
686.60	2.792
686.79	2.777
686.97	2.789
687.16	2.804
687.35	2.789
687.54	2.773
687.72	2.781
687.91	2.789
688.10	2.798
688.29	2.782
688.47	2.787
688.66	2.787
688.85	2.806
689.03	2.802
689.22	2.814
689.41	2.838
689.60	2.832
689.78	2.846
689.97	2.838
690.16	2.831
690.34	2.841
690.53	2.837
690.72	2.845
690.91	2.851
691.09	2.849
691.28	2.857
691.47	2.829
691.65	2.832
691.84	2.808
692.03	2.810
692.21	2.798
692.40	2.803
692.59	2.811
692.77	2.807
692.96	2.797
693.15	2.803
693.34	2.776
693.52	2.767
693.71	2.766
693.90	2.787
694.08	2.811
694.27	2.821
694.46	2.805
694.64	2.802
694.83	2.809
695.02	2.807
695.20	2.803
695.39	2.809
695.58	2.814
695.76	2.809
695.95	2.782
696.14	2.761
696.32	2.769
696.51	2.773
696.70	2.774
696.88	2.783
697.07	2.781
697.26	2.789
697.44	2.794
697.63	2.804
697.81	2.795
698.00	2.801
698.19	2.788
698.37	2.796
698.56	2.820
698.75	2.802
698.93	2.791
699.12	2.793
699.31	2.792
699.49	2.787
699.68	2.778
699.87	2.779
700.05	2.776
700.24	2.784
700.42	2.768
700.61	2.756
700.80	2.762
700.98	2.762
701.17	2.778
701.36	2.751
701.54	2.759
701.73	2.768
701.91	2.780
702.10	2.789
702.29	2.800
702.47	2.810
702.66	2.808
702.84	2.803
703.03	2.771
703.22	2.756
703.40	2.767
703.59	2.761
703.77	2.755
703.96	2.759
704.15	2.761
704.33	2.756
704.52	2.739
704.70	2.744
704.89	2.737
705.08	2.755
705.26	2.766
705.45	2.748
705.63	2.744
705.82	2.729
706.00	2.716
706.19	2.721
706.38	2.720
706.56	2.727
706.75	2.743
706.93	2.765
707.12	2.754
707.30	2.747
707.49	2.778
707.68	2.771
707.86	2.791
708.05	2.808
708.23	2.812
708.42	2.797
708.60	2.780
708.79	2.760
708.98	2.752
709.16	2.769
709.35	2.758
709.53	2.741
709.72	2.739
709.90	2.739
710.09	2.732
710.27	2.730
710.46	2.740
710.64	2.743
710.83	2.711
711.02	2.707
711.20	2.690
711.39	2.708
711.57	2.694
711.76	2.688
711.94	2.691
712.13	2.692
712.31	2.681
712.50	2.683
712.68	2.686
712.87	2.679
713.05	2.682
713.24	2.679
713.42	2.654
713.61	2.664
713.79	2.656
713.98	2.652
714.16	2.628
714.35	2.632
714.54	2.644
714.72	2.640
714.91	2.648
715.09	2.641
715.28	2.640
715.46	2.644
715.65	2.627
715.83	2.627
716.02	2.624
716.20	2.653
716.39	2.668
716.57	2.679
716.76	2.688
716.94	2.700
717.12	2.690
717.31	2.741
717.49	2.745
717.68	2.787
717.86	2.831
718.05	2.779
718.23	2.759
718.42	2.726
718.60	2.687
718.79	2.683
718.97	2.674
719.16	2.705
719.34	2.663
719.53	2.662
719.71	2.677
719.90	2.634
720.08	2.636
720.27	2.655
720.45	2.652
720.63	2.657
720.82	2.673
721.00	2.679
721.19	2.665
721.37	2.664
721.56	2.662
721.74	2.606
721.93	2.611
722.11	2.676
722.30	2.673
722.48	2.699
722.66	2.692
722.85	2.623
723.03	2.603
723.22	2.574
723.40	2.570
723.59	2.559
723.77	2.592
723.95	2.595
724.14	2.565
724.32	2.534
724.51	2.545
724.69	2.554
724.88	2.588
725.06	2.591
725.24	2.595
725.43	2.593
725.61	2.590
725.80	2.576
725.98	2.578
726.16	2.570
726.35	2.617
726.53	2.589
726.72	2.580
726.90	2.574
727.09	2.573
727.27	2.574
727.45	2.563
727.64	2.544
727.82	2.525
728.01	2.517
728.19	2.505
728.37	2.448
728.56	2.419
728.74	2.390
728.92	2.390
729.11	2.395
729.29	2.392
729.48	2.395
729.66	2.418
729.84	2.423
730.03	2.413
730.21	2.406
730.40	2.436
730.58	2.413
730.76	2.420
730.95	2.431
731.13	2.452
731.31	2.439
731.50	2.399
731.68	2.384
731.86	2.394
732.05	2.389
732.23	2.372
732.42	2.359
732.60	2.370
732.78	2.346
732.97	2.314
733.15	2.277
733.33	2.264
733.52	2.277
733.70	2.266
733.88	2.204
734.07	2.201
734.25	2.197
734.43	2.163
734.62	2.149
734.80	2.172
734.98	2.158
735.17	2.170
735.35	2.184
735.53	2.143
735.72	2.130
735.90	2.173
736.08	2.170
736.27	2.177
736.45	2.197
736.63	2.192
736.82	2.165
737.00	2.168
737.18	2.142
737.37	2.131
737.55	2.138
737.73	2.152
737.92	2.138
738.10	2.133
738.28	2.152
738.46	2.129
738.65	2.119
738.83	2.146
739.01	2.123
739.20	2.121
739.38	2.093
739.56	2.118
739.75	2.134
739.93	2.099
740.11	2.104
740.29	2.064
740.48	2.058
740.66	2.078
740.84	2.043
741.03	2.094
741.21	2.077
741.39	2.101
741.57	2.107
741.76	2.100
741.94	2.115
742.12	2.127
742.31	2.128
742.49	2.151
742.67	2.132
742.85	2.115
743.04	2.083
743.22	2.118
743.40	2.128
743.58	2.117
743.77	2.098
743.95	2.130
744.13	2.112
744.31	2.097
744.50	2.055
744.68	2.060
744.86	2.086
745.04	2.099
745.23	2.084
745.41	2.075
745.59	2.064
745.77	2.060
745.96	2.031
746.14	2.063
746.32	2.068
746.50	2.131
746.69	2.124
746.87	2.120
747.05	2.123
747.23	2.122
747.42	2.122
747.60	2.099
747.78	2.112
747.96	2.129
748.14	2.151
748.33	2.209
748.51	2.175
748.69	2.215
748.87	2.190
749.06	2.171
749.24	2.112
749.42	2.116
749.60	2.107
749.78	2.144
749.97	2.137
750.15	2.088
750.33	2.039
750.51	2.077
750.69	2.052
750.88	2.065
751.06	2.055
751.24	2.101
751.42	2.092
751.60	2.131
751.79	2.123
751.97	2.183
752.15	2.151
752.33	2.155
752.51	2.105
752.69	2.137
752.88	2.156
753.06	2.172
753.24	2.164
753.42	2.140
753.60	2.179
753.78	2.128
753.97	2.078
754.15	2.100
754.33	2.105
754.51	2.145
754.69	2.152
754.87	2.149
755.06	2.113
755.24	2.114
755.42	2.104
755.60	2.079
755.78	2.121
755.96	2.155
756.15	2.158
756.33	2.138
756.51	2.127
756.69	2.091
756.87	2.104
757.05	2.124
757.23	2.124
757.42	2.151
757.60	2.117
757.78	2.071
757.96	2.032
758.14	2.016
758.32	2.040
758.50	2.029
758.69	2.015
758.87	2.011
759.05	2.052
759.23	2.075
759.41	2.101
759.59	2.134
759.77	2.158
759.95	2.182
760.13	2.208
760.32	2.257
760.50	2.239
760.68	2.308
760.86	2.303
761.04	2.263
761.22	2.269
761.40	2.248
761.58	2.235
761.76	2.257
761.95	2.292
762.13	2.305
762.31	2.250
762.49	2.302
762.67	2.257
762.85	2.270
763.03	2.234
763.21	2.185
763.39	2.162
763.57	2.174
763.75	2.180
763.94	2.190
764.12	2.183
764.30	2.158
764.48	2.127
764.66	2.175
764.84	2.153
765.02	2.204
765.20	2.202
765.38	2.178
765.56	2.197
765.74	2.158
765.92	2.148
766.10	2.164
766.28	2.195
766.46	2.187
766.65	2.194
766.83	2.207
767.01	2.163
767.19	2.188
767.37	2.251
767.55	2.173
767.73	2.223
767.91	2.199
768.09	2.134
768.27	2.113
768.45	2.111
768.63	2.087
768.81	2.076
768.99	2.104
769.17	2.089
769.35	2.081
769.53	2.141
769.71	2.122
769.89	2.085
770.07	2.102
770.25	2.129
770.43	2.156
770.61	2.163
770.79	2.209
770.97	2.187
771.15	2.172
771.33	2.195
771.51	2.189
771.69	2.212
771.87	2.247
772.05	2.229
772.24	2.227
772.42	2.242
772.60	2.202
772.78	2.134
772.96	2.129
773.14	2.195
773.32	2.178
773.49	2.175
773.67	2.162
773.85	2.137
774.03	2.147
774.21	2.149
774.39	2.125
774.57	2.168
774.75	2.208
774.93	2.232
775.11	2.166
775.29	2.140
775.47	2.135
775.65	2.123
775.83	2.136
776.01	2.126
776.19	2.111
776.37	2.142
776.55	2.087
776.73	2.073
776.91	2.067
777.09	2.100
777.27	2.115
777.45	2.145
777.63	2.156
777.81	2.150
777.99	2.203
778.17	2.224
778.35	2.234
778.53	2.278
778.71	2.319
778.89	2.310
779.07	2.258
779.24	2.251
779.42	2.189
779.60	2.171
779.78	2.178
779.96	2.175
780.14	2.165
780.32	2.132
780.50	2.152
780.68	2.131
780.86	2.147
781.04	2.168
781.22	2.163
781.40	2.196
781.58	2.186
781.75	2.206
781.93	2.243
782.11	2.234
782.29	2.234
782.47	2.226
782.65	2.305
782.83	2.261
783.01	2.273
783.19	2.292
783.37	2.257
783.55	2.313
783.72	2.286
783.90	2.249
784.08	2.243
784.26	2.274
784.44	2.258
784.62	2.213
784.80	2.286
784.98	2.311
785.16	2.303
785.33	2.334
785.51	2.292
785.69	2.371
785.87	2.375
786.05	2.355
786.23	2.381
786.41	2.371
786.59	2.382
786.77	2.358
786.94	2.347
787.12	2.334
787.30	2.292
787.48	2.315
787.66	2.280
787.84	2.285
788.02	2.380
788.19	2.332
788.37	2.334
788.55	2.347
788.73	2.308
788.91	2.305
789.09	2.311
789.27	2.398
789.44	2.364
789.62	2.386
789.80	2.398
789.98	2.373
790.16	2.391
790.34	2.451
790.51	2.407
790.69	2.414
790.87	2.402
791.05	2.448
791.23	2.401
791.41	2.423
791.58	2.436
791.76	2.420
791.94	2.398
792.12	2.390
792.30	2.300
792.48	2.305
792.65	2.279
792.83	2.252
793.01	2.259
793.19	2.261
793.37	2.245
793.54	2.194
793.72	2.193
793.90	2.184
794.08	2.196
794.26	2.216
794.43	2.206
794.61	2.237
794.79	2.237
794.97	2.217
795.15	2.213
795.32	2.261
795.50	2.289
795.68	2.295
795.86	2.344
796.04	2.340
796.21	2.355
796.39	2.359
796.57	2.343
796.75	2.396
796.92	2.440
797.10	2.467
797.28	2.395
797.46	2.436
797.64	2.455
797.81	2.393
797.99	2.399
798.17	2.394
798.35	2.420
798.52	2.471
798.70	2.457
798.88	2.456
799.06	2.453
799.23	2.527
799.41	2.542
799.59	2.489
799.77	2.487
799.94	2.459
800.12	2.461
800.30	2.443
800.48	2.393
800.65	2.376
800.83	2.323
801.01	2.314
801.19	2.265
801.36	2.266
801.54	2.263
801.72	2.318
801.90	2.299
802.07	2.353
802.25	2.360
802.43	2.348
802.60	2.384
802.78	2.430
802.96	2.461
803.14	2.518
803.31	2.507
803.49	2.572
803.67	2.506
803.84	2.557
804.02	2.508
804.20	2.569
804.38	2.614
804.55	2.584
804.73	2.584
804.91	2.530
805.08	2.534
805.26	2.520
805.44	2.498
805.61	2.528
805.79	2.551
805.97	2.607
806.15	2.504
806.32	2.521
806.50	2.534
806.68	2.609
806.85	2.659
807.03	2.669
807.21	2.676
807.38	2.608
807.56	2.540
807.74	2.510
807.91	2.499
808.09	2.620
808.27	2.576
808.44	2.603
808.62	2.486
808.80	2.510
808.97	2.477
809.15	2.494
809.33	2.509
809.50	2.527
809.68	2.650
809.86	2.588
810.03	2.506
810.21	2.579
810.39	2.593
810.56	2.627
810.74	2.537
810.91	2.570
811.09	2.544
811.27	2.525
811.44	2.526
811.62	2.445
811.80	2.399
811.97	2.347
812.15	2.326
812.33	2.324
812.50	2.292
812.68	2.311
812.85	2.290
813.03	2.287
813.21	2.306
813.38	2.311
813.56	2.316
813.74	2.391
813.91	2.453
814.09	2.463
814.26	2.449
814.44	2.493
814.62	2.451
814.79	2.452
814.97	2.410
815.14	2.437
815.32	2.396
815.50	2.381
815.67	2.330
815.85	2.369
816.02	2.392
816.20	2.346
816.38	2.348
816.55	2.369
816.73	2.350
816.90	2.359
817.08	2.361
817.26	2.488
817.43	2.452
817.61	2.449
817.78	2.452
817.96	2.398
818.13	2.460
818.31	2.465
818.49	2.455
818.66	2.484
818.84	2.582
819.01	2.502
819.19	2.361
819.36	2.407
819.54	2.426
819.71	2.351
819.89	2.358
820.07	2.325
820.24	2.347
820.42	2.368
820.59	2.358
820.77	2.315
820.94	2.319
821.12	2.408
821.29	2.415
821.47	2.440
821.64	2.456
821.82	2.467
822.00	2.503
822.17	2.406
822.35	2.386
822.52	2.375
822.70	2.371
822.87	2.440
823.05	2.379
823.22	2.341
823.40	2.315
823.57	2.363
823.75	2.341
823.92	2.290
824.10	2.325
824.27	2.302
824.45	2.301
824.62	2.287
824.80	2.227
824.97	2.258
825.15	2.289
825.32	2.270
825.50	2.210
825.67	2.159
825.85	2.138
826.02	2.190
826.20	2.205
826.37	2.246
826.55	2.222
826.72	2.192
826.90	2.131
827.07	2.104
827.25	2.086
827.42	2.120
827.60	2.118
827.77	2.179
827.95	2.134
828.12	2.115
828.30	2.061
828.47	2.061
828.65	2.097
828.82	2.090
829.00	2.058
829.17	2.087
829.34	2.043
829.52	2.071
829.69	2.051
829.87	2.030
830.04	2.058
830.22	2.061
830.39	2.009
830.57	2.017
830.74	2.022
830.92	2.014
831.09	2.074
831.26	2.028
831.44	1.989
831.61	1.984
831.79	1.931
831.96	1.885
832.14	1.881
832.31	1.987
832.49	2.007
832.66	2.042
832.83	2.060
833.01	1.971
833.18	1.929
833.36	2.076
833.53	2.032
833.70	2.055
833.88	2.055
834.05	2.053
834.23	1.870
834.40	1.768
834.58	1.766
834.75	1.740
834.92	1.690
835.10	1.771
835.27	1.684
835.45	1.684
835.62	1.708
835.79	1.678
835.97	1.646
836.14	1.720
836.32	1.769
836.49	1.737
836.66	1.755
836.84	1.772
837.01	1.787
837.18	1.801
837.36	1.768
837.53	1.712
837.71	1.768
837.88	1.735
838.05	1.656
838.23	1.603
838.40	1.605
838.58	1.602
838.75	1.597
838.92	1.557
839.10	1.551
839.27	1.553
839.44	1.580
839.62	1.572
839.79	1.694
839.96	1.778
840.14	1.914
840.31	1.855
840.48	1.809
840.66	1.804
840.83	1.797
841.01	1.927
841.18	1.953
841.35	1.911
841.53	1.990
841.70	1.871
841.87	1.866
842.05	1.868
842.22	1.900
842.39	2.036
842.57	2.031
842.74	1.976
842.91	1.847
843.09	1.897
843.26	1.945
843.43	1.942
843.60	1.972
843.78	2.077
843.95	2.064
844.12	2.301
844.30	2.103
844.47	2.208
844.64	2.280
844.82	2.395
844.99	2.562
845.16	2.382
845.34	2.030
845.51	2.001
845.68	1.968
845.85	1.882
846.03	1.811
846.20	1.764
846.37	1.843
846.55	2.116
846.72	1.972
846.89	1.907
847.06	1.938
847.24	2.044
847.41	2.029
847.58	1.984
847.76	1.999
847.93	2.025
848.10	2.270
848.27	2.432
848.45	2.202
848.62	2.065
848.79	1.994
848.97	1.978
849.14	2.177
849.31	2.255
849.48	2.274
849.66	2.667
849.83	2.511
850.00	2.641
850.17	2.087
850.35	1.938
850.52	2.088
850.69	2.080
850.86	1.848
851.04	1.818
851.21	1.760
851.38	1.760
851.55	1.723
851.72	1.698
851.90	1.770
852.07	1.715
852.24	1.784
852.41	1.881
852.59	2.155
852.76	-0.000
852.93	2.872
853.10	-0.000
853.28	-0.000
853.45	-0.000
853.62	-0.000
853.79	3.569
853.96	-0.000
854.14	3.147
854.31	2.221
854.48	1.823
854.65	1.703
854.82	1.737
855.00	1.605
855.17	1.597
855.34	1.593
855.51	1.494
855.68	1.454
855.86	1.493
856.03	1.550
856.20	1.594
856.37	1.666
856.54	1.747
856.72	1.770
856.89	1.749
857.06	1.797
857.23	1.630
857.40	1.605
857.57	1.660
857.75	1.535
857.92	1.564
858.09	1.634
858.26	1.607
858.43	1.690
858.60	1.735
858.78	1.779
858.95	1.653
859.12	1.717
859.29	1.978
859.46	1.748
859.63	1.865
859.81	1.628
859.98	1.653
860.15	1.744
860.32	1.496
860.49	1.422
860.66	1.499
860.83	1.510
861.01	1.735
861.18	1.737
861.35	1.923
861.52	1.816
861.69	2.355
861.86	1.839
862.03	1.750
862.21	1.906
862.38	2.013
862.55	1.837
862.72	1.891
862.89	1.612
863.06	1.655
863.23	1.664
863.40	1.761
863.58	1.842
863.75	1.820
863.92	1.716
864.09	1.802
864.26	1.779
864.43	1.739
864.60	1.759
864.77	1.974
864.94	2.147
865.11	2.658
865.29	1.994
865.46	1.738
865.63	1.773
865.80	1.945
865.97	2.164
866.14	2.029
866.31	2.216
866.48	2.636
866.65	2.690
866.82	1.885
866.99	1.785
867.16	1.806
867.34	1.871
867.51	1.786
867.68	1.624
867.85	1.514
868.02	1.493
868.19	1.500
868.36	1.663
868.53	1.568
868.70	1.790
868.87	1.703
869.04	1.970
869.21	2.095
869.38	-0.000
869.55	-0.000
869.72	-0.000
869.89	-0.000
870.06	-0.000
870.24	1.952
870.41	1.862
870.58	1.730
870.75	1.663
870.92	1.597
871.09	1.583
871.26	1.586
871.43	1.671
871.60	1.780
871.77	1.625
871.94	1.614
872.11	1.541
872.28	1.504
872.45	1.472
872.62	1.598
872.79	1.528
872.96	1.505
873.13	1.413
873.30	1.346
873.47	1.287
873.64	1.306
873.81	1.269
873.98	1.498
874.15	1.595
874.32	1.703
874.49	1.535
874.66	1.369
874.83	1.304
875.00	1.252
875.17	1.310
875.34	1.361
875.51	1.519
875.68	1.973
875.85	1.587
876.02	1.754
876.19	1.467
876.36	1.586
876.53	2.347
876.70	2.694
876.87	-0.000
877.04	-0.000
877.21	-0.000
877.38	1.863
877.55	1.529
877.72	1.498
877.89	1.423
878.06	1.626
878.23	1.766
878.39	2.036
878.56	1.976
878.73	2.116
878.90	2.295
879.07	2.335
879.24	-0.000
879.41	-0.000
879.58	-0.000
879.75	1.961
879.92	1.804
880.09	1.545
880.26	1.280
880.43	1.252
880.60	1.276
880.77	1.257
880.94	1.194
881.11	1.241
881.27	1.174
881.44	1.233
881.61	1.306
881.78	1.345
881.95	1.504
882.12	1.719
882.29	1.932
882.46	1.856
882.63	2.150
882.80	-0.000
882.97	2.071
883.14	-0.000
883.30	-0.000
883.47	-0.000
883.64	-0.000
883.81	-0.000
883.98	3.216
884.15	2.060
884.32	3.565
884.49	-0.000
884.66	-0.000
884.82	-0.000
884.99	2.181
885.16	1.948
885.33	3.292
885.50	2.379
885.67	-0.000
885.84	2.636
886.01	-0.000
886.17	2.004
886.34	1.527
886.51	1.865
886.68	2.591
886.85	-0.000
887.02	2.423
887.19	-0.000
887.36	2.090
887.52	1.828
887.69	1.646
887.86	1.462
888.03	1.503
888.20	1.964
888.37	1.666
888.54	1.399
888.70	1.315
888.87	1.388
889.04	1.379
889.21	1.298
889.38	1.220
889.55	1.338
889.71	1.424
889.88	-0.000
890.05	1.036
890.22	0.894
890.39	1.322
>>>>>End Processed Spectral Data<<<<<
