SpectraSuite Data File
++++++++++++++++++++++++++++++++++++
Date: Fri Jun 19 16:11:23 CEST 2015
User: introlabs
Dark Spectrum Present: Yes
Reference Spectrum Present: Yes
Number of Sampled Component Spectra: 1
Spectrometers: USB4H08886
Integration Time (usec): 745692 (USB4H08886)
Spectra Averaged: 5 (USB4H08886)
Boxcar Smoothing: 5 (USB4H08886)
Correct for Electrical Dark: Yes (USB4H08886)
Strobe/Lamp Enabled: No (USB4H08886)
Correct for Detector Non-linearity: Yes (USB4H08886)
Correct for Stray Light: Yes (USB4H08886)
Number of Pixels in Processed Spectrum: 3648
>>>>>Begin Processed Spectral Data<<<<<
178.14	-0.000
178.36	-0.000
178.57	-0.000
178.79	-0.000
179.01	-0.000
179.22	-0.000
179.44	-0.000
179.65	-0.000
179.87	-0.000
180.08	-0.000
180.30	-0.000
180.52	-0.000
180.73	-0.000
180.95	-0.000
181.16	-0.000
181.38	-0.000
181.59	-0.000
181.81	-0.000
182.03	-0.000
182.24	-0.000
182.46	-0.000
182.67	-0.000
182.89	-0.000
183.10	-0.000
183.32	-0.000
183.54	-0.000
183.75	-0.000
183.97	-0.000
184.18	-0.000
184.40	-0.000
184.61	-0.000
184.83	-0.000
185.04	-0.000
185.26	-0.000
185.48	-0.000
185.69	-0.000
185.91	-0.000
186.12	-0.000
186.34	-0.000
186.55	-0.000
186.77	-0.000
186.98	-0.000
187.20	-0.000
187.42	-0.000
187.63	-0.000
187.85	-0.000
188.06	-0.000
188.28	-0.000
188.49	-0.000
188.71	-0.000
188.92	-0.000
189.14	-0.000
189.36	-0.000
189.57	-0.000
189.79	-0.000
190.00	-0.000
190.22	-0.000
190.43	-0.000
190.65	-0.000
190.86	-0.000
191.08	-0.000
191.29	-0.000
191.51	-0.000
191.72	-0.000
191.94	-0.000
192.16	-0.000
192.37	-0.000
192.59	-0.000
192.80	-0.000
193.02	-0.000
193.23	-0.000
193.45	-0.000
193.66	-0.000
193.88	-0.000
194.09	-0.000
194.31	-0.000
194.52	-0.000
194.74	-0.000
194.95	-0.000
195.17	-0.000
195.38	-0.000
195.60	-0.000
195.81	-0.000
196.03	-0.000
196.25	-0.000
196.46	-0.000
196.68	-0.000
196.89	-0.000
197.11	-0.000
197.32	-0.000
197.54	-0.000
197.75	-0.000
197.97	-0.000
198.18	-0.000
198.40	-0.000
198.61	-0.000
198.83	-0.000
199.04	-0.000
199.26	-0.000
199.47	-0.000
199.69	-0.000
199.90	-0.000
200.12	-0.000
200.33	-0.000
200.55	-0.000
200.76	-0.000
200.98	-0.000
201.19	-0.000
201.41	-0.000
201.62	-0.000
201.84	-0.000
202.05	-0.000
202.27	-0.000
202.48	-0.000
202.70	-0.000
202.91	-0.000
203.13	-0.000
203.34	-0.000
203.56	-0.000
203.77	-0.000
203.99	-0.000
204.20	-0.000
204.42	-0.000
204.63	-0.000
204.85	-0.000
205.06	-0.000
205.28	-0.000
205.49	-0.000
205.71	-0.000
205.92	-0.000
206.14	-0.000
206.35	-0.000
206.56	-0.000
206.78	-0.000
206.99	-0.000
207.21	-0.000
207.42	-0.000
207.64	-0.000
207.85	-0.000
208.07	-0.000
208.28	-0.000
208.50	-0.000
208.71	-0.000
208.93	-0.000
209.14	-0.000
209.36	-0.000
209.57	-0.000
209.79	-0.000
210.00	-0.000
210.22	-0.000
210.43	-0.000
210.64	-0.000
210.86	-0.000
211.07	-0.000
211.29	-0.000
211.50	-0.000
211.72	-0.000
211.93	-0.000
212.15	-0.000
212.36	-0.000
212.58	-0.000
212.79	-0.000
213.01	-0.000
213.22	-0.000
213.43	-0.000
213.65	-0.000
213.86	-0.000
214.08	-0.000
214.29	-0.000
214.51	-0.000
214.72	-0.000
214.94	-0.000
215.15	-0.000
215.36	-0.000
215.58	-0.000
215.79	-0.000
216.01	-0.000
216.22	-0.000
216.44	-0.000
216.65	-0.000
216.87	-0.000
217.08	-0.000
217.29	-0.000
217.51	-0.000
217.72	-0.000
217.94	-0.000
218.15	-0.000
218.37	-0.000
218.58	-0.000
218.80	-0.000
219.01	-0.000
219.22	-0.000
219.44	-0.000
219.65	-0.000
219.87	-0.000
220.08	-0.000
220.30	-0.000
220.51	-0.000
220.72	-0.000
220.94	-0.000
221.15	-0.000
221.37	-0.000
221.58	-0.000
221.79	-0.000
222.01	-0.000
222.22	-0.000
222.44	-0.000
222.65	-0.000
222.87	-0.000
223.08	-0.000
223.29	-0.000
223.51	-0.000
223.72	-0.000
223.94	-0.000
224.15	-0.000
224.36	-0.000
224.58	-0.000
224.79	-0.000
225.01	-0.000
225.22	-0.000
225.44	-0.000
225.65	-0.000
225.86	-0.000
226.08	-0.000
226.29	-0.000
226.51	-0.000
226.72	-0.000
226.93	-0.000
227.15	-0.000
227.36	-0.000
227.58	-0.000
227.79	-0.000
228.00	-0.000
228.22	-0.000
228.43	-0.000
228.65	-0.000
228.86	-0.000
229.07	-0.000
229.29	-0.000
229.50	-0.000
229.72	-0.000
229.93	-0.000
230.14	-0.000
230.36	-0.000
230.57	-0.000
230.78	-0.000
231.00	-0.000
231.21	-0.000
231.43	-0.000
231.64	-0.000
231.85	-0.000
232.07	-0.000
232.28	-0.000
232.50	-0.000
232.71	-0.000
232.92	-0.000
233.14	-0.000
233.35	-0.000
233.56	-0.000
233.78	-0.000
233.99	-0.000
234.21	-0.000
234.42	-0.000
234.63	-0.000
234.85	-0.000
235.06	-0.000
235.27	-0.000
235.49	-0.000
235.70	-0.000
235.91	-0.000
236.13	-0.000
236.34	-0.000
236.56	-0.000
236.77	-0.000
236.98	-0.000
237.20	-0.000
237.41	-0.000
237.62	-0.000
237.84	-0.000
238.05	-0.000
238.26	-0.000
238.48	-0.000
238.69	-0.000
238.91	-0.000
239.12	-0.000
239.33	-0.000
239.55	-0.000
239.76	-0.000
239.97	-0.000
240.19	-0.000
240.40	-0.000
240.61	-0.000
240.83	-0.000
241.04	-0.000
241.25	-0.000
241.47	-0.000
241.68	-0.000
241.89	-0.000
242.11	-0.000
242.32	-0.000
242.53	-0.000
242.75	-0.000
242.96	-0.000
243.17	-0.000
243.39	-0.000
243.60	-0.000
243.81	-0.000
244.03	-0.000
244.24	-0.000
244.45	-0.000
244.67	-0.000
244.88	-0.000
245.09	-0.000
245.31	-0.000
245.52	-0.000
245.73	-0.000
245.95	-0.000
246.16	-0.000
246.37	-0.000
246.59	-0.000
246.80	-0.000
247.01	-0.000
247.23	-0.000
247.44	-0.000
247.65	-0.000
247.87	-0.000
248.08	-0.000
248.29	-0.000
248.51	-0.000
248.72	-0.000
248.93	-0.000
249.15	-0.000
249.36	-0.000
249.57	-0.000
249.78	-0.000
250.00	-0.000
250.21	-0.000
250.42	-0.000
250.64	-0.000
250.85	-0.000
251.06	-0.000
251.28	-0.000
251.49	-0.000
251.70	-0.000
251.92	-0.000
252.13	-0.000
252.34	-0.000
252.55	-0.000
252.77	-0.000
252.98	-0.000
253.19	-0.000
253.41	-0.000
253.62	-0.000
253.83	-0.000
254.05	-0.000
254.26	-0.000
254.47	-0.000
254.68	-0.000
254.90	-0.000
255.11	-0.000
255.32	-0.000
255.54	-0.000
255.75	-0.000
255.96	-0.000
256.17	-0.000
256.39	-0.000
256.60	-0.000
256.81	-0.000
257.03	-0.000
257.24	-0.000
257.45	-0.000
257.66	-0.000
257.88	-0.000
258.09	-0.000
258.30	-0.000
258.51	-0.000
258.73	-0.000
258.94	-0.000
259.15	-0.000
259.37	-0.000
259.58	-0.000
259.79	-0.000
260.00	-0.000
260.22	-0.000
260.43	-0.000
260.64	-0.000
260.85	-0.000
261.07	-0.000
261.28	-0.000
261.49	-0.000
261.71	-0.000
261.92	-0.000
262.13	-0.000
262.34	-0.000
262.56	-0.000
262.77	-0.000
262.98	-0.000
263.19	-0.000
263.41	-0.000
263.62	-0.000
263.83	-0.000
264.04	-0.000
264.26	-0.000
264.47	-0.000
264.68	-0.000
264.89	-0.000
265.11	-0.000
265.32	-0.000
265.53	-0.000
265.74	-0.000
265.96	-0.000
266.17	-0.000
266.38	-0.000
266.59	-0.000
266.81	-0.000
267.02	-0.000
267.23	-0.000
267.44	-0.000
267.65	-0.000
267.87	-0.000
268.08	-0.000
268.29	-0.000
268.50	-0.000
268.72	-0.000
268.93	-0.000
269.14	-0.000
269.35	-0.000
269.57	-0.000
269.78	-0.000
269.99	-0.000
270.20	-0.000
270.41	-0.000
270.63	-0.000
270.84	-0.000
271.05	-0.000
271.26	-0.000
271.48	-0.000
271.69	-0.000
271.90	-0.000
272.11	-0.000
272.32	-0.000
272.54	-0.000
272.75	-0.000
272.96	-0.000
273.17	-0.000
273.39	-0.000
273.60	-0.000
273.81	-0.000
274.02	-0.000
274.23	-0.000
274.45	-0.000
274.66	-0.000
274.87	-0.000
275.08	-0.000
275.29	-0.000
275.51	-0.000
275.72	-0.000
275.93	-0.000
276.14	-0.000
276.35	-0.000
276.57	-0.000
276.78	-0.000
276.99	-0.000
277.20	-0.000
277.41	-0.000
277.63	-0.000
277.84	-0.000
278.05	-0.000
278.26	-0.000
278.47	-0.000
278.69	-0.000
278.90	-0.000
279.11	-0.000
279.32	-0.000
279.53	-0.000
279.74	-0.000
279.96	-0.000
280.17	-0.000
280.38	-0.000
280.59	-0.000
280.80	-0.000
281.02	-0.000
281.23	-0.000
281.44	-0.000
281.65	-0.000
281.86	-0.000
282.07	-0.000
282.29	-0.000
282.50	-0.000
282.71	-0.000
282.92	-0.000
283.13	-0.000
283.35	-0.000
283.56	-0.000
283.77	-0.000
283.98	-0.000
284.19	-0.000
284.40	-0.000
284.62	-0.000
284.83	-0.000
285.04	-0.000
285.25	-0.000
285.46	-0.000
285.67	-0.000
285.88	-0.000
286.10	-0.000
286.31	-0.000
286.52	-0.000
286.73	-0.000
286.94	-0.000
287.15	-0.000
287.37	-0.000
287.58	-0.000
287.79	-0.000
288.00	-0.000
288.21	-0.000
288.42	-0.000
288.63	-0.000
288.85	-0.000
289.06	-0.000
289.27	-0.000
289.48	-0.000
289.69	-0.000
289.90	-0.000
290.11	-0.000
290.33	-0.000
290.54	-0.000
290.75	-0.000
290.96	-0.000
291.17	-0.000
291.38	-0.000
291.59	-0.000
291.81	-0.000
292.02	-0.000
292.23	-0.000
292.44	-0.000
292.65	-0.000
292.86	-0.000
293.07	-0.000
293.28	-0.000
293.50	-0.000
293.71	-0.000
293.92	-0.000
294.13	-0.000
294.34	-0.000
294.55	-0.000
294.76	-0.000
294.97	-0.000
295.19	-0.000
295.40	-0.000
295.61	-0.000
295.82	-0.000
296.03	-0.000
296.24	-0.000
296.45	-0.000
296.66	-0.000
296.87	-0.000
297.09	-0.000
297.30	-0.000
297.51	-0.000
297.72	-0.000
297.93	-0.000
298.14	-0.000
298.35	-0.000
298.56	-0.000
298.77	-0.000
298.99	-0.000
299.20	-0.000
299.41	-0.000
299.62	-0.000
299.83	-0.000
300.04	-0.000
300.25	-0.000
300.46	-0.000
300.67	-0.000
300.88	-0.000
301.10	-0.000
301.31	-0.000
301.52	-0.000
301.73	-0.000
301.94	-0.000
302.15	-0.000
302.36	-0.000
302.57	-0.000
302.78	-0.000
302.99	-0.000
303.20	-0.000
303.41	-0.000
303.63	-0.000
303.84	-0.000
304.05	-0.000
304.26	-0.000
304.47	-0.000
304.68	-0.000
304.89	-0.000
305.10	-0.000
305.31	-0.000
305.52	-0.000
305.73	-0.000
305.94	-0.000
306.15	-0.000
306.37	-0.000
306.58	-0.000
306.79	-0.000
307.00	-0.000
307.21	-0.000
307.42	-0.000
307.63	-0.000
307.84	-0.000
308.05	-0.000
308.26	-0.000
308.47	-0.000
308.68	-0.000
308.89	-0.000
309.10	-0.000
309.31	-0.000
309.52	-0.000
309.73	-0.000
309.95	-0.000
310.16	-0.000
310.37	-0.000
310.58	-0.000
310.79	-0.000
311.00	-0.000
311.21	-0.000
311.42	-0.000
311.63	-0.000
311.84	-0.000
312.05	-0.000
312.26	-0.000
312.47	-0.000
312.68	-0.000
312.89	-0.000
313.10	-0.000
313.31	-0.000
313.52	-0.000
313.73	-0.000
313.94	-0.000
314.15	-0.000
314.36	-0.000
314.57	-0.000
314.78	-0.000
314.99	-0.000
315.21	-0.000
315.42	-0.000
315.63	-0.000
315.84	-0.000
316.05	-0.000
316.26	-0.000
316.47	-0.000
316.68	-0.000
316.89	-0.000
317.10	-0.000
317.31	-0.000
317.52	-0.000
317.73	-0.000
317.94	-0.000
318.15	-0.000
318.36	-0.000
318.57	-0.000
318.78	-0.000
318.99	-0.000
319.20	-0.000
319.41	-0.000
319.62	-0.000
319.83	-0.000
320.04	-0.000
320.25	-0.000
320.46	-0.000
320.67	-0.000
320.88	-0.000
321.09	-0.000
321.30	-0.000
321.51	-0.000
321.72	-0.000
321.93	-0.000
322.14	-0.000
322.35	-0.000
322.56	-0.000
322.77	-0.000
322.98	-0.000
323.19	-0.000
323.40	-0.000
323.61	-0.000
323.82	-0.000
324.03	-0.000
324.24	-0.000
324.45	-0.000
324.66	-0.000
324.87	-0.000
325.08	-0.000
325.29	-0.000
325.50	-0.000
325.71	-0.000
325.92	-0.000
326.13	-0.000
326.34	-0.000
326.55	-0.000
326.76	-0.000
326.97	-0.000
327.18	-0.000
327.39	-0.000
327.60	-0.000
327.80	-0.000
328.01	-0.000
328.22	-0.000
328.43	-0.000
328.64	-0.000
328.85	-0.000
329.06	-0.000
329.27	-0.000
329.48	-0.000
329.69	-0.000
329.90	-0.000
330.11	-0.000
330.32	-0.000
330.53	-0.000
330.74	-0.000
330.95	-0.000
331.16	-0.000
331.37	-0.000
331.58	-0.000
331.79	-0.000
332.00	-0.000
332.21	-0.000
332.42	-0.000
332.63	-0.000
332.83	-0.000
333.04	-0.000
333.25	-0.000
333.46	-0.000
333.67	-0.000
333.88	-0.000
334.09	-0.000
334.30	-0.000
334.51	-0.000
334.72	-0.000
334.93	-0.000
335.14	-0.000
335.35	-0.000
335.56	-0.000
335.77	-0.000
335.98	-0.000
336.18	-0.000
336.39	-0.000
336.60	-0.000
336.81	-0.000
337.02	-0.000
337.23	-0.000
337.44	-0.000
337.65	-0.000
337.86	-0.000
338.07	-0.000
338.28	-0.000
338.49	-0.000
338.70	-0.000
338.91	-0.000
339.11	-0.000
339.32	-0.000
339.53	-0.000
339.74	-0.000
339.95	-0.000
340.16	-0.000
340.37	-0.000
340.58	-0.000
340.79	-0.000
341.00	-0.000
341.21	-0.000
341.41	-0.000
341.62	-0.000
341.83	-0.000
342.04	-0.000
342.25	-0.000
342.46	-0.000
342.67	-0.000
342.88	-0.000
343.09	-0.000
343.30	-0.000
343.50	-0.000
343.71	-0.000
343.92	-0.000
344.13	-0.000
344.34	-0.000
344.55	-0.000
344.76	-0.000
344.97	-0.000
345.18	-0.000
345.38	-0.000
345.59	-0.000
345.80	-0.000
346.01	-0.000
346.22	-0.000
346.43	-0.000
346.64	-0.000
346.85	-0.000
347.06	-0.000
347.26	-0.000
347.47	-0.000
347.68	-0.000
347.89	-0.000
348.10	-0.000
348.31	-0.000
348.52	-0.000
348.73	-0.000
348.93	-0.000
349.14	-0.000
349.35	-0.000
349.56	-0.000
349.77	-0.000
349.98	-0.000
350.19	-0.000
350.39	-0.000
350.60	-0.000
350.81	-0.000
351.02	-0.000
351.23	-0.000
351.44	-0.000
351.65	-0.000
351.86	-0.000
352.06	-0.000
352.27	-0.000
352.48	-0.000
352.69	-0.000
352.90	-0.000
353.11	-0.000
353.31	-0.000
353.52	-0.000
353.73	-0.000
353.94	-0.000
354.15	-0.000
354.36	-0.000
354.57	-0.000
354.77	-0.000
354.98	-0.000
355.19	-0.000
355.40	-0.000
355.61	-0.000
355.82	-0.000
356.02	-0.000
356.23	-0.000
356.44	-0.000
356.65	-0.000
356.86	-0.000
357.07	-0.000
357.27	-0.000
357.48	-0.000
357.69	-0.000
357.90	-0.000
358.11	-0.000
358.32	-0.000
358.52	-0.000
358.73	-0.000
358.94	-0.000
359.15	-0.000
359.36	-0.000
359.56	-0.000
359.77	-0.000
359.98	-0.000
360.19	-0.000
360.40	-0.000
360.61	-0.000
360.81	-0.000
361.02	-0.000
361.23	-0.000
361.44	-0.000
361.65	-0.000
361.85	-0.000
362.06	-0.000
362.27	-0.000
362.48	-0.000
362.69	-0.000
362.89	-0.000
363.10	-0.000
363.31	-0.000
363.52	-0.000
363.73	-0.000
363.93	-0.000
364.14	-0.000
364.35	-0.000
364.56	-0.000
364.77	-0.000
364.97	-0.000
365.18	-0.000
365.39	-0.000
365.60	-0.000
365.81	-0.000
366.01	-0.000
366.22	-0.000
366.43	-0.000
366.64	-0.000
366.84	-0.000
367.05	-0.000
367.26	-0.000
367.47	-0.000
367.68	-0.000
367.88	-0.000
368.09	-0.000
368.30	-0.000
368.51	-0.000
368.71	-0.000
368.92	-0.000
369.13	-0.000
369.34	-0.000
369.55	-0.000
369.75	-0.000
369.96	-0.000
370.17	-0.000
370.38	-0.000
370.58	-0.000
370.79	-0.000
371.00	-0.000
371.21	-0.000
371.41	-0.000
371.62	-0.000
371.83	-0.000
372.04	-0.000
372.24	-0.000
372.45	-0.000
372.66	-0.000
372.87	-0.000
373.07	-0.000
373.28	-0.000
373.49	-0.000
373.70	-0.000
373.90	-0.000
374.11	-0.000
374.32	-0.000
374.53	-0.000
374.73	-0.000
374.94	-0.000
375.15	-0.000
375.36	-0.000
375.56	-0.000
375.77	-0.000
375.98	-0.000
376.19	-0.000
376.39	-0.000
376.60	-0.000
376.81	-0.000
377.02	-0.000
377.22	-0.000
377.43	-0.000
377.64	-0.000
377.84	-0.000
378.05	-0.000
378.26	-0.000
378.47	-0.000
378.67	-0.000
378.88	-0.000
379.09	-0.000
379.30	-0.000
379.50	-0.000
379.71	-0.000
379.92	-0.000
380.12	-0.000
380.33	-0.000
380.54	-0.000
380.75	-0.000
380.95	-0.000
381.16	-0.000
381.37	-0.000
381.57	-0.000
381.78	-0.000
381.99	-0.000
382.20	-0.000
382.40	-0.000
382.61	-0.000
382.82	-0.000
383.02	-0.000
383.23	-0.000
383.44	-0.000
383.64	-0.000
383.85	-0.000
384.06	-0.000
384.27	-0.000
384.47	-0.000
384.68	-0.000
384.89	-0.000
385.09	-0.000
385.30	-0.000
385.51	-0.000
385.71	-0.000
385.92	-0.000
386.13	-0.000
386.33	-0.000
386.54	-0.000
386.75	-0.000
386.95	-0.000
387.16	-0.000
387.37	-0.000
387.58	-0.000
387.78	-0.000
387.99	-0.000
388.20	-0.000
388.40	-0.000
388.61	2.831
388.82	-0.000
389.02	-0.000
389.23	-0.000
389.44	-0.000
389.64	-0.000
389.85	-0.000
390.06	-0.000
390.26	-0.000
390.47	-0.000
390.68	-0.000
390.88	-0.000
391.09	-0.000
391.30	-0.000
391.50	-0.000
391.71	-0.000
391.92	-0.000
392.12	2.742
392.33	2.778
392.53	2.727
392.74	2.764
392.95	2.619
393.15	2.770
393.36	2.907
393.57	2.762
393.77	3.004
393.98	3.617
394.19	4.004
394.39	3.632
394.60	-0.000
394.81	-0.000
395.01	-0.000
395.22	3.306
395.43	3.369
395.63	-0.000
395.84	-0.000
396.04	-0.000
396.25	-0.000
396.46	-0.000
396.66	-0.000
396.87	3.638
397.08	2.922
397.28	3.626
397.49	-0.000
397.69	3.073
397.90	2.489
398.11	2.542
398.31	2.529
398.52	2.351
398.73	2.425
398.93	2.399
399.14	2.389
399.34	2.363
399.55	2.387
399.76	2.400
399.96	2.419
400.17	2.392
400.37	2.336
400.58	2.701
400.79	2.878
400.99	2.565
401.20	3.301
401.41	-0.000
401.61	-0.000
401.82	-0.000
402.02	-0.000
402.23	-0.000
402.44	-0.000
402.64	-0.000
402.85	-0.000
403.05	-0.000
403.26	4.025
403.47	2.611
403.67	2.545
403.88	2.573
404.08	2.273
404.29	2.220
404.50	2.214
404.70	2.212
404.91	2.198
405.11	2.127
405.32	2.147
405.52	2.162
405.73	2.169
405.94	2.142
406.14	2.219
406.35	2.273
406.55	2.274
406.76	2.198
406.97	2.224
407.17	2.307
407.38	2.325
407.58	2.286
407.79	2.370
407.99	2.458
408.20	2.471
408.41	2.289
408.61	2.245
408.82	2.263
409.02	2.277
409.23	2.229
409.43	2.185
409.64	2.200
409.84	2.193
410.05	2.123
410.26	2.090
410.46	2.088
410.67	2.091
410.87	2.130
411.08	2.186
411.28	2.203
411.49	2.257
411.69	2.191
411.90	2.256
412.11	2.292
412.31	2.322
412.52	2.272
412.72	2.299
412.93	2.322
413.13	2.307
413.34	2.202
413.54	2.266
413.75	2.336
413.95	2.344
414.16	2.241
414.37	2.348
414.57	2.370
414.78	2.484
414.98	2.425
415.19	2.496
415.39	2.337
415.60	2.434
415.80	2.389
416.01	2.293
416.21	2.342
416.42	2.344
416.62	2.191
416.83	2.181
417.03	2.169
417.24	2.168
417.44	2.111
417.65	2.098
417.86	2.098
418.06	2.056
418.27	2.021
418.47	2.059
418.68	2.059
418.88	2.056
419.09	2.032
419.29	2.048
419.50	2.059
419.70	2.064
419.91	2.044
420.11	2.000
420.32	2.045
420.52	2.040
420.73	2.019
420.93	2.049
421.14	2.109
421.34	2.100
421.55	2.045
421.75	2.045
421.96	2.059
422.16	2.068
422.37	2.055
422.57	2.014
422.78	2.055
422.98	2.006
423.19	1.971
423.39	1.943
423.60	2.015
423.80	2.033
424.01	2.016
424.21	2.070
424.42	2.090
424.62	2.096
424.83	2.073
425.03	2.066
425.23	2.098
425.44	2.099
425.64	2.103
425.85	2.057
426.05	2.073
426.26	2.076
426.46	1.992
426.67	1.974
426.87	2.051
427.08	2.063
427.28	2.024
427.49	2.039
427.69	2.043
427.90	2.015
428.10	1.973
428.31	1.969
428.51	2.008
428.71	2.004
428.92	2.030
429.12	1.987
429.33	2.003
429.53	2.102
429.74	2.261
429.94	2.307
430.15	2.309
430.35	2.303
430.56	2.220
430.76	2.180
430.96	2.221
431.17	2.155
431.37	2.112
431.58	2.080
431.78	2.006
431.99	1.880
432.19	1.915
432.40	1.952
432.60	1.971
432.80	2.020
433.01	2.000
433.21	2.000
433.42	2.033
433.62	2.028
433.83	2.023
434.03	2.080
434.23	2.140
434.44	2.099
434.64	2.039
434.85	2.150
435.05	2.192
435.26	2.188
435.46	2.156
435.66	2.150
435.87	2.151
436.07	2.154
436.28	2.065
436.48	2.021
436.69	2.022
436.89	2.028
437.09	1.915
437.30	1.895
437.50	1.903
437.71	2.174
437.91	2.159
438.11	2.197
438.32	2.337
438.52	2.334
438.73	2.307
438.93	2.241
439.13	2.233
439.34	2.381
439.54	2.290
439.75	2.316
439.95	2.018
440.15	2.117
440.36	2.077
440.56	2.021
440.77	2.048
440.97	2.059
441.17	2.027
441.38	2.061
441.58	2.012
441.79	2.005
441.99	1.980
442.19	1.945
442.40	1.898
442.60	1.900
442.81	1.877
443.01	1.872
443.21	1.874
443.42	1.878
443.62	1.857
443.82	1.850
444.03	1.879
444.23	1.880
444.44	1.883
444.64	1.883
444.84	1.917
445.05	1.918
445.25	1.892
445.45	1.896
445.66	1.928
445.86	1.921
446.06	1.947
446.27	1.926
446.47	1.975
446.68	1.951
446.88	1.927
447.08	1.909
447.29	1.933
447.49	1.935
447.69	1.921
447.90	1.901
448.10	1.953
448.30	1.910
448.51	1.937
448.71	1.895
448.91	1.929
449.12	1.920
449.32	1.953
449.52	1.933
449.73	1.997
449.93	1.989
450.14	2.014
450.34	1.998
450.54	2.047
450.75	2.005
450.95	1.998
451.15	1.996
451.36	2.048
451.56	1.988
451.76	1.985
451.97	1.944
452.17	1.955
452.37	1.917
452.58	1.878
452.78	1.875
452.98	1.906
453.19	1.906
453.39	1.912
453.59	1.884
453.79	1.894
454.00	1.895
454.20	1.877
454.40	1.890
454.61	1.932
454.81	1.936
455.01	1.910
455.22	1.922
455.42	1.946
455.62	1.911
455.83	1.907
456.03	1.952
456.23	1.961
456.44	1.970
456.64	1.945
456.84	1.939
457.04	1.950
457.25	1.943
457.45	1.889
457.65	1.881
457.86	1.910
458.06	1.900
458.26	1.845
458.47	1.840
458.67	1.858
458.87	1.859
459.07	1.831
459.28	1.852
459.48	1.881
459.68	1.883
459.89	1.864
460.09	1.837
460.29	1.849
460.49	1.866
460.70	1.857
460.90	1.858
461.10	1.869
461.31	1.871
461.51	1.838
461.71	1.875
461.91	1.896
462.12	1.908
462.32	1.903
462.52	1.903
462.72	1.935
462.93	1.937
463.13	1.906
463.33	1.923
463.53	1.928
463.74	1.927
463.94	1.849
464.14	1.859
464.35	1.873
464.55	1.871
464.75	1.852
464.95	1.827
465.16	1.850
465.36	1.846
465.56	1.832
465.76	1.830
465.97	1.840
466.17	1.851
466.37	1.818
466.57	1.827
466.78	1.846
466.98	1.845
467.18	1.829
467.38	1.817
467.59	1.831
467.79	1.853
467.99	1.842
468.19	1.851
468.39	1.886
468.60	1.890
468.80	1.855
469.00	1.869
469.20	1.888
469.41	1.883
469.61	1.871
469.81	1.875
470.01	1.874
470.22	1.878
470.42	1.860
470.62	1.835
470.82	1.854
471.02	1.854
471.23	1.818
471.43	1.820
471.63	1.855
471.83	1.851
472.04	1.828
472.24	1.802
472.44	1.872
472.64	1.870
472.84	1.843
473.05	1.832
473.25	1.859
473.45	1.852
473.65	1.829
473.85	1.828
474.06	1.837
474.26	1.830
474.46	1.855
474.66	1.805
474.86	1.814
475.07	1.812
475.27	1.799
475.47	1.777
475.67	1.779
475.87	1.803
476.08	1.771
476.28	1.792
476.48	1.821
476.68	1.794
476.88	1.769
477.09	1.778
477.29	1.800
477.49	1.801
477.69	1.797
477.89	1.805
478.09	1.792
478.30	1.814
478.50	1.778
478.70	1.757
478.90	1.765
479.10	1.798
479.31	1.809
479.51	1.791
479.71	1.794
479.91	1.783
480.11	1.769
480.31	1.770
480.52	1.753
480.72	1.753
480.92	1.745
481.12	1.731
481.32	1.709
481.52	1.686
481.72	1.682
481.93	1.717
482.13	1.733
482.33	1.729
482.53	1.710
482.73	1.719
482.93	1.728
483.14	1.725
483.34	1.718
483.54	1.726
483.74	1.716
483.94	1.709
484.14	1.666
484.34	1.663
484.55	1.665
484.75	1.667
484.95	1.653
485.15	1.654
485.35	1.656
485.55	1.656
485.75	1.639
485.96	1.647
486.16	1.663
486.36	1.664
486.56	1.649
486.76	1.657
486.96	1.664
487.16	1.659
487.36	1.644
487.57	1.643
487.77	1.651
487.97	1.658
488.17	1.646
488.37	1.641
488.57	1.645
488.77	1.648
488.97	1.638
489.18	1.629
489.38	1.651
489.58	1.654
489.78	1.652
489.98	1.644
490.18	1.641
490.38	1.643
490.58	1.632
490.78	1.638
490.98	1.647
491.19	1.648
491.39	1.646
491.59	1.631
491.79	1.659
491.99	1.659
492.19	1.661
492.39	1.688
492.59	1.688
492.79	1.708
492.99	1.703
493.20	1.703
493.40	1.702
493.60	1.713
493.80	1.707
494.00	1.682
494.20	1.684
494.40	1.680
494.60	1.658
494.80	1.700
495.00	1.689
495.20	1.682
495.40	1.676
495.61	1.692
495.81	1.691
496.01	1.725
496.21	1.739
496.41	1.734
496.61	1.742
496.81	1.730
497.01	1.681
497.21	1.675
497.41	1.680
497.61	1.676
497.81	1.658
498.01	1.661
498.21	1.637
498.41	1.617
498.61	1.618
498.82	1.627
499.02	1.644
499.22	1.647
499.42	1.644
499.62	1.653
499.82	1.661
500.02	1.669
500.22	1.657
500.42	1.678
500.62	1.684
500.82	1.684
501.02	1.664
501.22	1.662
501.42	1.664
501.62	1.681
501.82	1.672
502.02	1.672
502.22	1.668
502.42	1.685
502.62	1.657
502.82	1.657
503.02	1.670
503.22	1.670
503.42	1.654
503.63	1.652
503.83	1.636
504.03	1.631
504.23	1.621
504.43	1.627
504.63	1.635
504.83	1.635
505.03	1.628
505.23	1.636
505.43	1.650
505.63	1.658
505.83	1.656
506.03	1.666
506.23	1.681
506.43	1.680
506.63	1.669
506.83	1.652
507.03	1.672
507.23	1.674
507.43	1.651
507.63	1.652
507.83	1.652
508.03	1.655
508.23	1.650
508.43	1.637
508.63	1.653
508.83	1.654
509.03	1.668
509.23	1.654
509.43	1.665
509.63	1.667
509.83	1.658
510.03	1.683
510.23	1.694
510.43	1.700
510.63	1.701
510.83	1.694
511.03	1.711
511.23	1.688
511.43	1.685
511.63	1.693
511.83	1.712
512.03	1.709
512.22	1.680
512.42	1.678
512.62	1.689
512.82	1.688
513.02	1.682
513.22	1.674
513.42	1.690
513.62	1.715
513.82	1.696
514.02	1.691
514.22	1.703
514.42	1.705
514.62	1.700
514.82	1.694
515.02	1.718
515.22	1.758
515.42	1.753
515.62	1.774
515.82	1.761
516.02	1.770
516.22	1.766
516.42	1.781
516.62	1.796
516.82	1.805
517.01	1.786
517.21	1.773
517.41	1.807
517.61	1.813
517.81	1.770
518.01	1.763
518.21	1.767
518.41	1.754
518.61	1.741
518.81	1.740
519.01	1.748
519.21	1.755
519.41	1.743
519.61	1.686
519.81	1.708
520.00	1.712
520.20	1.711
520.40	1.733
520.60	1.735
520.80	1.727
521.00	1.737
521.20	1.740
521.40	1.785
521.60	1.787
521.80	1.775
522.00	1.768
522.20	1.788
522.39	1.782
522.59	1.750
522.79	1.776
522.99	1.799
523.19	1.772
523.39	1.758
523.59	1.739
523.79	1.770
523.99	1.793
524.19	1.779
524.38	1.763
524.58	1.778
524.78	1.778
524.98	1.749
525.18	1.775
525.38	1.781
525.58	1.778
525.78	1.753
525.98	1.731
526.18	1.728
526.37	1.722
526.57	1.743
526.77	1.738
526.97	1.742
527.17	1.746
527.37	1.702
527.57	1.732
527.77	1.743
527.96	1.744
528.16	1.735
528.36	1.748
528.56	1.771
528.76	1.744
528.96	1.740
529.16	1.755
529.36	1.784
529.55	1.784
529.75	1.746
529.95	1.746
530.15	1.754
530.35	1.781
530.55	1.746
530.75	1.746
530.94	1.759
531.14	1.757
531.34	1.736
531.54	1.719
531.74	1.744
531.94	1.776
532.13	1.762
532.33	1.785
532.53	1.770
532.73	1.777
532.93	1.751
533.13	1.757
533.33	1.759
533.52	1.763
533.72	1.805
533.92	1.785
534.12	1.765
534.32	1.764
534.52	1.739
534.71	1.753
534.91	1.771
535.11	1.803
535.31	1.783
535.51	1.805
535.71	1.814
535.90	1.769
536.10	1.779
536.30	1.793
536.50	1.802
536.70	1.806
536.89	1.780
537.09	1.774
537.29	1.779
537.49	1.783
537.69	1.754
537.89	1.769
538.08	1.766
538.28	1.746
538.48	1.752
538.68	1.763
538.88	1.779
539.07	1.779
539.27	1.760
539.47	1.753
539.67	1.755
539.87	1.770
540.06	1.745
540.26	1.753
540.46	1.777
540.66	1.749
540.86	1.728
541.05	1.722
541.25	1.737
541.45	1.739
541.65	1.719
541.84	1.734
542.04	1.735
542.24	1.737
542.44	1.723
542.64	1.730
542.83	1.753
543.03	1.759
543.23	1.745
543.43	1.745
543.62	1.757
543.82	1.756
544.02	1.741
544.22	1.740
544.42	1.772
544.61	1.783
544.81	1.754
545.01	1.737
545.21	1.748
545.40	1.742
545.60	1.727
545.80	1.761
546.00	1.763
546.19	1.755
546.39	1.745
546.59	1.724
546.79	1.737
546.98	1.742
547.18	1.738
547.38	1.746
547.58	1.775
547.77	1.778
547.97	1.732
548.17	1.746
548.37	1.751
548.56	1.752
548.76	1.741
548.96	1.745
549.16	1.762
549.35	1.765
549.55	1.741
549.75	1.741
549.95	1.772
550.14	1.772
550.34	1.753
550.54	1.801
550.73	1.834
550.93	1.844
551.13	1.814
551.33	1.790
551.52	1.789
551.72	1.791
551.92	1.764
552.12	1.773
552.31	1.776
552.51	1.780
552.71	1.729
552.90	1.733
553.10	1.738
553.30	1.740
553.50	1.740
553.69	1.754
553.89	1.762
554.09	1.767
554.28	1.728
554.48	1.742
554.68	1.756
554.87	1.757
555.07	1.730
555.27	1.726
555.47	1.739
555.66	1.742
555.86	1.730
556.06	1.749
556.25	1.765
556.45	1.867
556.65	1.852
556.84	1.898
557.04	1.951
557.24	1.960
557.43	1.955
557.63	2.003
557.83	2.025
558.02	2.031
558.22	2.102
558.42	2.086
558.61	1.935
558.81	1.927
559.01	1.858
559.21	1.845
559.40	1.855
559.60	1.860
559.80	1.809
559.99	1.819
560.19	1.834
560.39	1.770
560.58	1.755
560.78	1.762
560.97	1.803
561.17	1.798
561.37	1.779
561.56	1.791
561.76	1.807
561.96	1.808
562.15	1.781
562.35	1.809
562.55	1.807
562.74	1.807
562.94	1.796
563.14	1.772
563.33	1.781
563.53	1.778
563.73	1.748
563.92	1.760
564.12	1.775
564.31	1.797
564.51	1.779
564.71	1.804
564.90	1.824
565.10	1.824
565.30	1.872
565.49	1.881
565.69	1.905
565.89	1.915
566.08	1.875
566.28	1.896
566.47	1.910
566.67	1.871
566.87	1.841
567.06	1.864
567.26	1.958
567.46	1.880
567.65	1.860
567.85	1.877
568.04	1.908
568.24	1.891
568.44	1.851
568.63	1.833
568.83	1.858
569.02	1.840
569.22	1.791
569.42	1.749
569.61	1.772
569.81	1.759
570.00	1.737
570.20	1.750
570.40	1.769
570.59	1.770
570.79	1.749
570.98	1.729
571.18	1.739
571.38	1.733
571.57	1.708
571.77	1.691
571.96	1.726
572.16	1.708
572.35	1.666
572.55	1.675
572.75	1.666
572.94	1.666
573.14	1.655
573.33	1.661
573.53	1.667
573.73	1.661
573.92	1.648
574.12	1.633
574.31	1.653
574.51	1.655
574.70	1.625
574.90	1.630
575.09	1.649
575.29	1.652
575.49	1.630
575.68	1.641
575.88	1.653
576.07	1.664
576.27	1.645
576.46	1.630
576.66	1.626
576.86	1.623
577.05	1.613
577.25	1.603
577.44	1.615
577.64	1.616
577.83	1.596
578.03	1.599
578.22	1.591
578.42	1.589
578.61	1.580
578.81	1.588
579.00	1.592
579.20	1.588
579.40	1.581
579.59	1.572
579.79	1.577
579.98	1.574
580.18	1.575
580.37	1.583
580.57	1.600
580.76	1.640
580.96	1.629
581.15	1.635
581.35	1.647
581.54	1.641
581.74	1.635
581.93	1.649
582.13	1.660
582.32	1.640
582.52	1.624
582.71	1.618
582.91	1.587
583.10	1.588
583.30	1.578
583.49	1.577
583.69	1.605
583.88	1.614
584.08	1.603
584.27	1.619
584.47	1.636
584.66	1.638
584.86	1.627
585.05	1.636
585.25	1.650
585.44	1.647
585.64	1.638
585.83	1.618
586.03	1.623
586.22	1.616
586.42	1.593
586.61	1.615
586.81	1.639
587.00	1.639
587.20	1.624
587.39	1.632
587.59	1.648
587.78	1.652
587.98	1.649
588.17	1.652
588.37	1.668
588.56	1.678
588.76	1.638
588.95	1.634
589.15	1.671
589.34	1.687
589.54	1.667
589.73	1.673
589.92	1.695
590.12	1.689
590.31	1.668
590.51	1.716
590.70	1.728
590.90	1.729
591.09	1.705
591.29	1.677
591.48	1.675
591.68	1.685
591.87	1.670
592.06	1.670
592.26	1.700
592.45	1.697
592.65	1.641
592.84	1.641
593.04	1.661
593.23	1.684
593.43	1.673
593.62	1.674
593.81	1.681
594.01	1.680
594.20	1.662
594.40	1.657
594.59	1.671
594.79	1.680
594.98	1.667
595.17	1.660
595.37	1.665
595.56	1.672
595.76	1.666
595.95	1.671
596.14	1.689
596.34	1.693
596.53	1.669
596.73	1.675
596.92	1.679
597.12	1.694
597.31	1.690
597.50	1.675
597.70	1.692
597.89	1.684
598.09	1.660
598.28	1.670
598.47	1.697
598.67	1.690
598.86	1.665
599.06	1.692
599.25	1.695
599.44	1.684
599.64	1.674
599.83	1.664
600.03	1.693
600.22	1.696
600.41	1.702
600.61	1.680
600.80	1.705
601.00	1.711
601.19	1.673
601.38	1.659
601.58	1.678
601.77	1.682
601.96	1.698
602.16	1.692
602.35	1.783
602.55	1.745
602.74	1.742
602.93	1.747
603.13	1.792
603.32	1.795
603.51	1.793
603.71	1.822
603.90	1.828
604.09	1.827
604.29	1.795
604.48	1.729
604.68	1.744
604.87	1.739
605.06	1.714
605.26	1.687
605.45	1.697
605.64	1.691
605.84	1.655
606.03	1.657
606.22	1.649
606.42	1.648
606.61	1.627
606.80	1.630
607.00	1.653
607.19	1.653
607.38	1.652
607.58	1.666
607.77	1.685
607.96	1.687
608.16	1.682
608.35	1.729
608.54	1.764
608.74	1.795
608.93	1.859
609.12	1.878
609.32	1.916
609.51	1.937
609.70	1.910
609.90	1.941
610.09	2.000
610.28	2.065
610.48	1.939
610.67	1.954
610.86	1.955
611.06	1.859
611.25	1.828
611.44	1.826
611.64	1.826
611.83	1.862
612.02	1.817
612.21	1.799
612.41	1.788
612.60	1.786
612.79	1.742
612.99	1.750
613.18	1.777
613.37	1.761
613.57	1.744
613.76	1.763
613.95	1.738
614.14	1.737
614.34	1.718
614.53	1.726
614.72	1.753
614.92	1.762
615.11	1.731
615.30	1.704
615.49	1.723
615.69	1.744
615.88	1.716
616.07	1.730
616.26	1.757
616.46	1.770
616.65	1.741
616.84	1.729
617.04	1.732
617.23	1.757
617.42	1.754
617.61	1.781
617.81	1.778
618.00	1.789
618.19	1.768
618.38	1.798
618.58	1.839
618.77	1.845
618.96	1.835
619.15	1.871
619.35	1.908
619.54	1.925
619.73	1.861
619.92	1.889
620.12	1.936
620.31	1.940
620.50	1.865
620.69	1.856
620.89	1.904
621.08	1.910
621.27	1.895
621.46	1.874
621.66	1.927
621.85	1.927
622.04	1.889
622.23	1.915
622.43	1.929
622.62	1.929
622.81	1.918
623.00	1.911
623.19	1.957
623.39	1.936
623.58	1.897
623.77	1.873
623.96	1.918
624.16	1.920
624.35	1.858
624.54	1.895
624.73	1.955
624.92	1.924
625.12	1.890
625.31	1.900
625.50	1.950
625.69	1.957
625.88	1.917
626.08	1.902
626.27	1.915
626.46	1.912
626.65	1.863
626.84	1.849
627.04	1.922
627.23	1.924
627.42	1.860
627.61	1.881
627.80	1.910
628.00	1.921
628.19	1.899
628.38	1.936
628.57	1.975
628.76	1.971
628.96	1.932
629.15	1.932
629.34	1.979
629.53	1.986
629.72	1.910
629.91	1.922
630.11	1.969
630.30	1.965
630.49	2.020
630.68	2.022
630.87	2.088
631.06	2.118
631.26	2.025
631.45	2.051
631.64	2.223
631.83	2.267
632.02	2.216
632.21	2.183
632.41	2.417
632.60	2.202
632.79	2.148
632.98	2.170
633.17	2.215
633.36	2.247
633.55	2.139
633.75	2.087
633.94	2.108
634.13	2.097
634.32	2.068
634.51	1.972
634.70	2.003
634.89	2.005
635.09	1.951
635.28	1.952
635.47	1.981
635.66	2.037
635.85	1.971
636.04	2.009
636.23	2.120
636.43	2.116
636.62	2.113
636.81	2.085
637.00	2.128
637.19	2.185
637.38	2.136
637.57	2.156
637.76	2.209
637.95	2.201
638.15	2.108
638.34	2.034
638.53	2.097
638.72	2.110
638.91	2.085
639.10	2.055
639.29	2.053
639.48	2.049
639.67	2.030
639.87	2.008
640.06	2.149
640.25	2.147
640.44	2.143
640.63	2.185
640.82	2.253
641.01	2.269
641.20	2.278
641.39	2.390
641.58	2.514
641.78	2.442
641.97	2.297
642.16	-0.000
642.35	-0.000
642.54	-0.000
642.73	2.757
642.92	2.643
643.11	2.941
643.30	2.857
643.49	2.454
643.68	2.585
643.87	2.703
644.06	2.710
644.25	2.011
644.45	2.090
644.64	2.136
644.83	2.133
645.02	2.097
645.21	2.079
645.40	2.091
645.59	2.099
645.78	1.997
645.97	2.035
646.16	2.037
646.35	2.016
646.54	1.967
646.73	1.986
646.92	2.035
647.11	2.013
647.30	1.959
647.49	1.997
647.68	2.006
647.88	1.999
648.07	1.920
648.26	1.984
648.45	1.998
648.64	1.970
648.83	1.931
649.02	1.974
649.21	2.177
649.40	2.174
649.59	2.081
649.78	2.112
649.97	2.730
650.16	2.646
650.35	2.349
650.54	2.601
650.73	-0.000
650.92	3.146
651.11	2.501
651.30	2.442
651.49	2.664
651.68	2.680
651.87	2.456
652.06	2.102
652.25	2.157
652.44	2.170
652.63	2.017
652.82	1.975
653.01	1.969
653.20	1.926
653.39	1.792
653.58	1.773
653.77	1.776
653.96	1.743
654.15	1.685
654.34	1.683
654.53	1.669
654.72	1.642
654.91	1.589
655.10	1.575
655.29	1.572
655.48	1.563
655.67	1.533
655.86	1.523
656.05	1.520
656.24	1.517
656.43	1.492
656.62	1.497
656.81	1.516
657.00	1.516
657.19	1.512
657.38	1.521
657.57	1.528
657.76	1.555
657.95	1.548
658.14	1.578
658.33	1.611
658.51	1.652
658.70	1.645
658.89	1.634
659.08	1.692
659.27	1.740
659.46	1.724
659.65	1.768
659.84	1.790
660.03	1.819
660.22	1.814
660.41	1.862
660.60	1.867
660.79	1.888
660.98	1.975
661.17	1.940
661.36	1.917
661.55	1.937
661.74	1.895
661.92	1.928
662.11	1.967
662.30	1.939
662.49	1.847
662.68	1.829
662.87	1.859
663.06	1.786
663.25	1.800
663.44	1.805
663.63	1.814
663.82	1.806
664.01	1.755
664.20	1.743
664.38	1.770
664.57	1.774
664.76	1.777
664.95	1.795
665.14	1.857
665.33	1.818
665.52	1.939
665.71	2.029
665.90	2.051
666.09	2.101
666.28	2.065
666.46	1.999
666.65	2.015
666.84	1.987
667.03	1.908
667.22	1.902
667.41	1.953
667.60	1.810
667.79	1.728
667.98	1.734
668.16	1.738
668.35	1.736
668.54	1.725
668.73	1.738
668.92	1.753
669.11	1.747
669.30	1.687
669.49	1.655
669.67	1.686
669.86	1.717
670.05	1.700
670.24	1.680
670.43	1.673
670.62	1.669
670.81	1.632
671.00	1.640
671.18	1.636
671.37	1.640
671.56	1.627
671.75	1.612
671.94	1.596
672.13	1.587
672.32	1.562
672.50	1.563
672.69	1.564
672.88	1.568
673.07	1.538
673.26	1.560
673.45	1.564
673.63	1.559
673.82	1.543
674.01	1.553
674.20	1.548
674.39	1.548
674.58	1.543
674.76	1.551
674.95	1.551
675.14	1.555
675.33	1.523
675.52	1.518
675.71	1.526
675.89	1.523
676.08	1.499
676.27	1.501
676.46	1.506
676.65	1.505
676.84	1.501
677.02	1.512
677.21	1.525
677.40	1.525
677.59	1.517
677.78	1.520
677.96	1.540
678.15	1.538
678.34	1.531
678.53	1.534
678.72	1.533
678.90	1.517
679.09	1.497
679.28	1.486
679.47	1.489
679.66	1.487
679.84	1.476
680.03	1.461
680.22	1.462
680.41	1.476
680.60	1.460
680.78	1.461
680.97	1.474
681.16	1.473
681.35	1.464
681.53	1.460
681.72	1.469
681.91	1.480
682.10	1.469
682.29	1.486
682.47	1.473
682.66	1.460
682.85	1.452
683.04	1.447
683.22	1.448
683.41	1.460
683.60	1.456
683.79	1.463
683.97	1.454
684.16	1.451
684.35	1.430
684.54	1.440
684.72	1.453
684.91	1.461
685.10	1.446
685.29	1.458
685.47	1.446
685.66	1.444
685.85	1.424
686.04	1.424
686.22	1.441
686.41	1.457
686.60	1.437
686.79	1.459
686.97	1.464
687.16	1.475
687.35	1.460
687.54	1.482
687.72	1.505
687.91	1.505
688.10	1.520
688.29	1.520
688.47	1.502
688.66	1.503
688.85	1.475
689.03	1.463
689.22	1.501
689.41	1.505
689.60	1.478
689.78	1.467
689.97	1.474
690.16	1.462
690.34	1.440
690.53	1.446
690.72	1.450
690.91	1.444
691.09	1.436
691.28	1.404
691.47	1.398
691.65	1.397
691.84	1.384
692.03	1.382
692.21	1.374
692.40	1.377
692.59	1.366
692.77	1.364
692.96	1.370
693.15	1.375
693.34	1.364
693.52	1.364
693.71	1.365
693.90	1.370
694.08	1.373
694.27	1.381
694.46	1.444
694.64	1.448
694.83	1.446
695.02	1.446
695.20	1.447
695.39	1.444
695.58	1.446
695.76	1.450
695.95	1.446
696.14	1.443
696.32	1.427
696.51	1.367
696.70	1.369
696.88	1.376
697.07	1.368
697.26	1.372
697.44	1.378
697.63	1.371
697.81	1.363
698.00	1.368
698.19	1.365
698.37	1.368
698.56	1.363
698.75	1.365
698.93	1.360
699.12	1.361
699.31	1.360
699.49	1.358
699.68	1.368
699.87	1.381
700.05	1.378
700.24	1.374
700.42	1.382
700.61	1.384
700.80	1.373
700.98	1.379
701.17	1.383
701.36	1.377
701.54	1.374
701.73	1.379
701.91	1.369
702.10	1.364
702.29	1.362
702.47	1.360
702.66	1.374
702.84	1.382
703.03	1.372
703.22	1.384
703.40	1.389
703.59	1.401
703.77	1.402
703.96	1.403
704.15	1.411
704.33	1.409
704.52	1.403
704.70	1.393
704.89	1.392
705.08	1.386
705.26	1.365
705.45	1.362
705.63	1.360
705.82	1.346
706.00	1.338
706.19	1.339
706.38	1.338
706.56	1.336
706.75	1.329
706.93	1.327
707.12	1.336
707.30	1.337
707.49	1.327
707.68	1.320
707.86	1.316
708.05	1.318
708.23	1.307
708.42	1.312
708.60	1.331
708.79	1.330
708.98	1.322
709.16	1.321
709.35	1.332
709.53	1.357
709.72	1.351
709.90	1.362
710.09	1.371
710.27	1.378
710.46	1.398
710.64	1.385
710.83	1.392
711.02	1.402
711.20	1.394
711.39	1.386
711.57	1.369
711.76	1.369
711.94	1.361
712.13	1.368
712.31	1.368
712.50	1.343
712.68	1.330
712.87	1.336
713.05	1.339
713.24	1.340
713.42	1.334
713.61	1.336
713.79	1.345
713.98	1.342
714.16	1.347
714.35	1.342
714.54	1.349
714.72	1.351
714.91	1.341
715.09	1.379
715.28	1.394
715.46	1.396
715.65	1.384
715.83	1.382
716.02	1.398
716.20	1.378
716.39	1.379
716.57	1.386
716.76	1.398
716.94	1.401
717.12	1.352
717.31	1.359
717.49	1.376
717.68	1.391
717.86	1.384
718.05	1.391
718.23	1.405
718.42	1.416
718.60	1.424
718.79	1.487
718.97	1.502
719.16	1.502
719.34	1.491
719.53	1.491
719.71	1.490
719.90	1.501
720.08	1.484
720.27	1.487
720.45	1.488
720.63	1.470
720.82	1.419
721.00	1.436
721.19	1.456
721.37	1.447
721.56	1.447
721.74	1.455
721.93	1.519
722.11	1.585
722.30	1.578
722.48	1.610
722.66	1.618
722.85	1.600
723.03	1.603
723.22	1.592
723.40	1.618
723.59	1.606
723.77	1.649
723.95	1.576
724.14	1.569
724.32	1.574
724.51	1.568
724.69	1.584
724.88	1.584
725.06	1.563
725.24	1.564
725.43	1.575
725.61	1.611
725.80	1.556
725.98	1.547
726.16	1.516
726.35	1.564
726.53	1.545
726.72	1.530
726.90	1.623
727.09	1.627
727.27	1.681
727.45	1.639
727.64	1.716
727.82	1.805
728.01	1.849
728.19	1.831
728.37	1.909
728.56	1.996
728.74	2.160
728.92	1.914
729.11	1.973
729.29	1.934
729.48	1.977
729.66	1.819
729.84	1.800
730.03	1.844
730.21	1.858
730.40	1.714
730.58	1.723
730.76	1.723
730.95	1.740
731.13	1.730
731.31	1.908
731.50	2.047
731.68	2.109
731.86	2.087
732.05	2.849
732.23	3.604
732.42	-0.000
732.60	-0.000
732.78	-0.000
732.97	-0.000
733.15	-0.000
733.33	-0.000
733.52	-0.000
733.70	-0.000
733.88	-0.000
734.07	-0.000
734.25	-0.000
734.43	-0.000
734.62	-0.000
734.80	-0.000
734.98	-0.000
735.17	-0.000
735.35	-0.000
735.53	-0.000
735.72	-0.000
735.90	-0.000
736.08	-0.000
736.27	-0.000
736.45	-0.000
736.63	-0.000
736.82	-0.000
737.00	-0.000
737.18	-0.000
737.37	-0.000
737.55	-0.000
737.73	-0.000
737.92	-0.000
738.10	-0.000
738.28	-0.000
738.46	-0.000
738.65	-0.000
738.83	-0.000
739.01	-0.000
739.20	-0.000
739.38	-0.000
739.56	-0.000
739.75	-0.000
739.93	-0.000
740.11	-0.000
740.29	-0.000
740.48	-0.000
740.66	-0.000
740.84	-0.000
741.03	-0.000
741.21	-0.000
741.39	-0.000
741.57	-0.000
741.76	-0.000
741.94	-0.000
742.12	-0.000
742.31	-0.000
742.49	-0.000
742.67	-0.000
742.85	-0.000
743.04	-0.000
743.22	-0.000
743.40	-0.000
743.58	-0.000
743.77	-0.000
743.95	-0.000
744.13	-0.000
744.31	-0.000
744.50	-0.000
744.68	-0.000
744.86	-0.000
745.04	-0.000
745.23	-0.000
745.41	-0.000
745.59	-0.000
745.77	-0.000
745.96	-0.000
746.14	-0.000
746.32	-0.000
746.50	-0.000
746.69	-0.000
746.87	-0.000
747.05	-0.000
747.23	-0.000
747.42	-0.000
747.60	-0.000
747.78	-0.000
747.96	-0.000
748.14	-0.000
748.33	-0.000
748.51	-0.000
748.69	-0.000
748.87	-0.000
749.06	-0.000
749.24	-0.000
749.42	-0.000
749.60	-0.000
749.78	-0.000
749.97	-0.000
750.15	-0.000
750.33	-0.000
750.51	-0.000
750.69	-0.000
750.88	-0.000
751.06	-0.000
751.24	-0.000
751.42	-0.000
751.60	-0.000
751.79	-0.000
751.97	-0.000
752.15	-0.000
752.33	-0.000
752.51	-0.000
752.69	-0.000
752.88	-0.000
753.06	-0.000
753.24	-0.000
753.42	-0.000
753.60	-0.000
753.78	-0.000
753.97	-0.000
754.15	-0.000
754.33	-0.000
754.51	-0.000
754.69	-0.000
754.87	-0.000
755.06	-0.000
755.24	-0.000
755.42	-0.000
755.60	-0.000
755.78	-0.000
755.96	-0.000
756.15	-0.000
756.33	-0.000
756.51	-0.000
756.69	-0.000
756.87	-0.000
757.05	-0.000
757.23	-0.000
757.42	-0.000
757.60	-0.000
757.78	-0.000
757.96	-0.000
758.14	-0.000
758.32	-0.000
758.50	-0.000
758.69	-0.000
758.87	-0.000
759.05	-0.000
759.23	-0.000
759.41	-0.000
759.59	-0.000
759.77	-0.000
759.95	-0.000
760.13	-0.000
760.32	-0.000
760.50	-0.000
760.68	-0.000
760.86	-0.000
761.04	-0.000
761.22	-0.000
761.40	-0.000
761.58	-0.000
761.76	-0.000
761.95	-0.000
762.13	-0.000
762.31	-0.000
762.49	-0.000
762.67	-0.000
762.85	-0.000
763.03	-0.000
763.21	-0.000
763.39	-0.000
763.57	-0.000
763.75	-0.000
763.94	-0.000
764.12	-0.000
764.30	-0.000
764.48	-0.000
764.66	-0.000
764.84	-0.000
765.02	-0.000
765.20	-0.000
765.38	-0.000
765.56	-0.000
765.74	-0.000
765.92	-0.000
766.10	-0.000
766.28	-0.000
766.46	-0.000
766.65	-0.000
766.83	-0.000
767.01	-0.000
767.19	-0.000
767.37	-0.000
767.55	-0.000
767.73	-0.000
767.91	-0.000
768.09	-0.000
768.27	-0.000
768.45	-0.000
768.63	-0.000
768.81	-0.000
768.99	-0.000
769.17	-0.000
769.35	-0.000
769.53	-0.000
769.71	-0.000
769.89	-0.000
770.07	-0.000
770.25	-0.000
770.43	-0.000
770.61	-0.000
770.79	-0.000
770.97	-0.000
771.15	-0.000
771.33	-0.000
771.51	-0.000
771.69	-0.000
771.87	-0.000
772.05	-0.000
772.24	-0.000
772.42	-0.000
772.60	-0.000
772.78	-0.000
772.96	-0.000
773.14	-0.000
773.32	-0.000
773.49	-0.000
773.67	-0.000
773.85	-0.000
774.03	-0.000
774.21	-0.000
774.39	-0.000
774.57	-0.000
774.75	-0.000
774.93	-0.000
775.11	-0.000
775.29	-0.000
775.47	-0.000
775.65	-0.000
775.83	-0.000
776.01	-0.000
776.19	-0.000
776.37	-0.000
776.55	-0.000
776.73	-0.000
776.91	-0.000
777.09	-0.000
777.27	-0.000
777.45	-0.000
777.63	-0.000
777.81	-0.000
777.99	-0.000
778.17	-0.000
778.35	-0.000
778.53	-0.000
778.71	-0.000
778.89	-0.000
779.07	-0.000
779.24	-0.000
779.42	-0.000
779.60	-0.000
779.78	-0.000
779.96	-0.000
780.14	-0.000
780.32	-0.000
780.50	-0.000
780.68	-0.000
780.86	-0.000
781.04	-0.000
781.22	-0.000
781.40	-0.000
781.58	-0.000
781.75	-0.000
781.93	-0.000
782.11	-0.000
782.29	-0.000
782.47	-0.000
782.65	-0.000
782.83	-0.000
783.01	-0.000
783.19	-0.000
783.37	-0.000
783.55	-0.000
783.72	-0.000
783.90	-0.000
784.08	-0.000
784.26	-0.000
784.44	-0.000
784.62	-0.000
784.80	-0.000
784.98	-0.000
785.16	-0.000
785.33	-0.000
785.51	-0.000
785.69	-0.000
785.87	-0.000
786.05	-0.000
786.23	-0.000
786.41	-0.000
786.59	-0.000
786.77	-0.000
786.94	-0.000
787.12	-0.000
787.30	-0.000
787.48	-0.000
787.66	-0.000
787.84	-0.000
788.02	-0.000
788.19	-0.000
788.37	-0.000
788.55	-0.000
788.73	-0.000
788.91	-0.000
789.09	-0.000
789.27	-0.000
789.44	-0.000
789.62	-0.000
789.80	-0.000
789.98	-0.000
790.16	-0.000
790.34	-0.000
790.51	-0.000
790.69	-0.000
790.87	-0.000
791.05	-0.000
791.23	-0.000
791.41	-0.000
791.58	-0.000
791.76	-0.000
791.94	-0.000
792.12	-0.000
792.30	-0.000
792.48	-0.000
792.65	-0.000
792.83	-0.000
793.01	-0.000
793.19	-0.000
793.37	-0.000
793.54	-0.000
793.72	-0.000
793.90	-0.000
794.08	-0.000
794.26	-0.000
794.43	-0.000
794.61	-0.000
794.79	-0.000
794.97	-0.000
795.15	-0.000
795.32	-0.000
795.50	-0.000
795.68	-0.000
795.86	-0.000
796.04	-0.000
796.21	-0.000
796.39	-0.000
796.57	-0.000
796.75	-0.000
796.92	-0.000
797.10	-0.000
797.28	-0.000
797.46	-0.000
797.64	-0.000
797.81	-0.000
797.99	-0.000
798.17	-0.000
798.35	-0.000
798.52	-0.000
798.70	-0.000
798.88	-0.000
799.06	-0.000
799.23	-0.000
799.41	-0.000
799.59	-0.000
799.77	-0.000
799.94	-0.000
800.12	-0.000
800.30	-0.000
800.48	-0.000
800.65	-0.000
800.83	-0.000
801.01	-0.000
801.19	-0.000
801.36	-0.000
801.54	-0.000
801.72	-0.000
801.90	-0.000
802.07	-0.000
802.25	-0.000
802.43	-0.000
802.60	-0.000
802.78	-0.000
802.96	-0.000
803.14	-0.000
803.31	-0.000
803.49	-0.000
803.67	-0.000
803.84	-0.000
804.02	-0.000
804.20	-0.000
804.38	-0.000
804.55	-0.000
804.73	-0.000
804.91	-0.000
805.08	-0.000
805.26	-0.000
805.44	-0.000
805.61	-0.000
805.79	-0.000
805.97	-0.000
806.15	-0.000
806.32	-0.000
806.50	-0.000
806.68	-0.000
806.85	-0.000
807.03	-0.000
807.21	-0.000
807.38	-0.000
807.56	-0.000
807.74	-0.000
807.91	-0.000
808.09	-0.000
808.27	-0.000
808.44	-0.000
808.62	-0.000
808.80	-0.000
808.97	-0.000
809.15	-0.000
809.33	-0.000
809.50	-0.000
809.68	-0.000
809.86	-0.000
810.03	-0.000
810.21	-0.000
810.39	-0.000
810.56	-0.000
810.74	-0.000
810.91	-0.000
811.09	-0.000
811.27	-0.000
811.44	-0.000
811.62	-0.000
811.80	-0.000
811.97	-0.000
812.15	-0.000
812.33	-0.000
812.50	-0.000
812.68	-0.000
812.85	-0.000
813.03	-0.000
813.21	-0.000
813.38	-0.000
813.56	-0.000
813.74	-0.000
813.91	-0.000
814.09	-0.000
814.26	-0.000
814.44	-0.000
814.62	-0.000
814.79	-0.000
814.97	-0.000
815.14	-0.000
815.32	-0.000
815.50	-0.000
815.67	-0.000
815.85	-0.000
816.02	-0.000
816.20	-0.000
816.38	-0.000
816.55	-0.000
816.73	-0.000
816.90	-0.000
817.08	-0.000
817.26	-0.000
817.43	-0.000
817.61	-0.000
817.78	-0.000
817.96	-0.000
818.13	-0.000
818.31	-0.000
818.49	-0.000
818.66	-0.000
818.84	-0.000
819.01	-0.000
819.19	-0.000
819.36	-0.000
819.54	-0.000
819.71	-0.000
819.89	-0.000
820.07	-0.000
820.24	-0.000
820.42	-0.000
820.59	-0.000
820.77	-0.000
820.94	-0.000
821.12	-0.000
821.29	-0.000
821.47	-0.000
821.64	-0.000
821.82	-0.000
822.00	-0.000
822.17	-0.000
822.35	-0.000
822.52	-0.000
822.70	-0.000
822.87	-0.000
823.05	-0.000
823.22	-0.000
823.40	-0.000
823.57	-0.000
823.75	-0.000
823.92	-0.000
824.10	-0.000
824.27	-0.000
824.45	-0.000
824.62	-0.000
824.80	-0.000
824.97	-0.000
825.15	-0.000
825.32	-0.000
825.50	-0.000
825.67	-0.000
825.85	-0.000
826.02	-0.000
826.20	-0.000
826.37	-0.000
826.55	-0.000
826.72	-0.000
826.90	-0.000
827.07	-0.000
827.25	-0.000
827.42	-0.000
827.60	-0.000
827.77	-0.000
827.95	-0.000
828.12	-0.000
828.30	-0.000
828.47	-0.000
828.65	-0.000
828.82	-0.000
829.00	-0.000
829.17	-0.000
829.34	-0.000
829.52	-0.000
829.69	-0.000
829.87	-0.000
830.04	-0.000
830.22	-0.000
830.39	-0.000
830.57	-0.000
830.74	-0.000
830.92	-0.000
831.09	-0.000
831.26	-0.000
831.44	-0.000
831.61	-0.000
831.79	-0.000
831.96	-0.000
832.14	-0.000
832.31	-0.000
832.49	-0.000
832.66	-0.000
832.83	-0.000
833.01	-0.000
833.18	-0.000
833.36	-0.000
833.53	-0.000
833.70	-0.000
833.88	-0.000
834.05	-0.000
834.23	-0.000
834.40	-0.000
834.58	-0.000
834.75	-0.000
834.92	-0.000
835.10	-0.000
835.27	-0.000
835.45	-0.000
835.62	-0.000
835.79	-0.000
835.97	-0.000
836.14	-0.000
836.32	-0.000
836.49	-0.000
836.66	-0.000
836.84	-0.000
837.01	-0.000
837.18	-0.000
837.36	-0.000
837.53	-0.000
837.71	-0.000
837.88	-0.000
838.05	-0.000
838.23	-0.000
838.40	-0.000
838.58	-0.000
838.75	-0.000
838.92	-0.000
839.10	-0.000
839.27	-0.000
839.44	-0.000
839.62	-0.000
839.79	-0.000
839.96	-0.000
840.14	-0.000
840.31	-0.000
840.48	-0.000
840.66	-0.000
840.83	-0.000
841.01	-0.000
841.18	-0.000
841.35	-0.000
841.53	-0.000
841.70	-0.000
841.87	-0.000
842.05	-0.000
842.22	-0.000
842.39	-0.000
842.57	-0.000
842.74	-0.000
842.91	-0.000
843.09	-0.000
843.26	-0.000
843.43	-0.000
843.60	-0.000
843.78	-0.000
843.95	-0.000
844.12	-0.000
844.30	-0.000
844.47	-0.000
844.64	-0.000
844.82	-0.000
844.99	-0.000
845.16	-0.000
845.34	-0.000
845.51	-0.000
845.68	-0.000
845.85	-0.000
846.03	-0.000
846.20	-0.000
846.37	-0.000
846.55	-0.000
846.72	-0.000
846.89	-0.000
847.06	-0.000
847.24	-0.000
847.41	-0.000
847.58	-0.000
847.76	-0.000
847.93	-0.000
848.10	-0.000
848.27	-0.000
848.45	-0.000
848.62	-0.000
848.79	-0.000
848.97	-0.000
849.14	-0.000
849.31	-0.000
849.48	-0.000
849.66	-0.000
849.83	-0.000
850.00	-0.000
850.17	-0.000
850.35	-0.000
850.52	-0.000
850.69	-0.000
850.86	-0.000
851.04	-0.000
851.21	-0.000
851.38	-0.000
851.55	-0.000
851.72	-0.000
851.90	-0.000
852.07	-0.000
852.24	-0.000
852.41	-0.000
852.59	-0.000
852.76	-0.000
852.93	-0.000
853.10	-0.000
853.28	-0.000
853.45	-0.000
853.62	-0.000
853.79	-0.000
853.96	-0.000
854.14	-0.000
854.31	-0.000
854.48	-0.000
854.65	-0.000
854.82	-0.000
855.00	-0.000
855.17	-0.000
855.34	-0.000
855.51	-0.000
855.68	-0.000
855.86	-0.000
856.03	-0.000
856.20	-0.000
856.37	-0.000
856.54	-0.000
856.72	-0.000
856.89	-0.000
857.06	-0.000
857.23	-0.000
857.40	-0.000
857.57	-0.000
857.75	-0.000
857.92	-0.000
858.09	-0.000
858.26	-0.000
858.43	-0.000
858.60	-0.000
858.78	-0.000
858.95	-0.000
859.12	-0.000
859.29	-0.000
859.46	-0.000
859.63	-0.000
859.81	-0.000
859.98	-0.000
860.15	-0.000
860.32	-0.000
860.49	-0.000
860.66	-0.000
860.83	-0.000
861.01	-0.000
861.18	-0.000
861.35	-0.000
861.52	-0.000
861.69	-0.000
861.86	-0.000
862.03	-0.000
862.21	-0.000
862.38	-0.000
862.55	-0.000
862.72	-0.000
862.89	-0.000
863.06	-0.000
863.23	-0.000
863.40	-0.000
863.58	-0.000
863.75	-0.000
863.92	-0.000
864.09	-0.000
864.26	-0.000
864.43	-0.000
864.60	-0.000
864.77	-0.000
864.94	-0.000
865.11	-0.000
865.29	-0.000
865.46	-0.000
865.63	-0.000
865.80	-0.000
865.97	-0.000
866.14	-0.000
866.31	-0.000
866.48	-0.000
866.65	-0.000
866.82	-0.000
866.99	-0.000
867.16	-0.000
867.34	-0.000
867.51	-0.000
867.68	-0.000
867.85	-0.000
868.02	-0.000
868.19	-0.000
868.36	-0.000
868.53	-0.000
868.70	-0.000
868.87	-0.000
869.04	-0.000
869.21	-0.000
869.38	-0.000
869.55	-0.000
869.72	-0.000
869.89	-0.000
870.06	-0.000
870.24	-0.000
870.41	-0.000
870.58	-0.000
870.75	-0.000
870.92	-0.000
871.09	-0.000
871.26	-0.000
871.43	-0.000
871.60	-0.000
871.77	-0.000
871.94	-0.000
872.11	-0.000
872.28	-0.000
872.45	-0.000
872.62	-0.000
872.79	-0.000
872.96	-0.000
873.13	-0.000
873.30	-0.000
873.47	-0.000
873.64	-0.000
873.81	-0.000
873.98	-0.000
874.15	-0.000
874.32	-0.000
874.49	-0.000
874.66	-0.000
874.83	-0.000
875.00	-0.000
875.17	-0.000
875.34	-0.000
875.51	-0.000
875.68	-0.000
875.85	-0.000
876.02	-0.000
876.19	-0.000
876.36	-0.000
876.53	-0.000
876.70	-0.000
876.87	-0.000
877.04	-0.000
877.21	-0.000
877.38	-0.000
877.55	-0.000
877.72	-0.000
877.89	-0.000
878.06	-0.000
878.23	-0.000
878.39	-0.000
878.56	-0.000
878.73	-0.000
878.90	-0.000
879.07	-0.000
879.24	-0.000
879.41	-0.000
879.58	-0.000
879.75	-0.000
879.92	-0.000
880.09	-0.000
880.26	-0.000
880.43	-0.000
880.60	-0.000
880.77	-0.000
880.94	-0.000
881.11	-0.000
881.27	-0.000
881.44	-0.000
881.61	-0.000
881.78	-0.000
881.95	-0.000
882.12	-0.000
882.29	-0.000
882.46	-0.000
882.63	-0.000
882.80	-0.000
882.97	-0.000
883.14	-0.000
883.30	-0.000
883.47	-0.000
883.64	-0.000
883.81	-0.000
883.98	-0.000
884.15	-0.000
884.32	-0.000
884.49	-0.000
884.66	-0.000
884.82	-0.000
884.99	-0.000
885.16	-0.000
885.33	-0.000
885.50	-0.000
885.67	-0.000
885.84	-0.000
886.01	-0.000
886.17	-0.000
886.34	-0.000
886.51	-0.000
886.68	-0.000
886.85	-0.000
887.02	-0.000
887.19	-0.000
887.36	-0.000
887.52	-0.000
887.69	-0.000
887.86	-0.000
888.03	-0.000
888.20	-0.000
888.37	-0.000
888.54	-0.000
888.70	-0.000
888.87	-0.000
889.04	-0.000
889.21	-0.000
889.38	-0.000
889.55	-0.000
889.71	-0.000
889.88	-0.000
890.05	-0.000
890.22	-0.000
890.39	-0.000
>>>>>End Processed Spectral Data<<<<<
