SpectraSuite Data File
++++++++++++++++++++++++++++++++++++
Date: Fri Jun 19 17:01:30 CEST 2015
User: introlabs
Dark Spectrum Present: Yes
Reference Spectrum Present: Yes
Number of Sampled Component Spectra: 1
Spectrometers: USB4H08886
Integration Time (usec): 745692 (USB4H08886)
Spectra Averaged: 5 (USB4H08886)
Boxcar Smoothing: 5 (USB4H08886)
Correct for Electrical Dark: Yes (USB4H08886)
Strobe/Lamp Enabled: No (USB4H08886)
Correct for Detector Non-linearity: Yes (USB4H08886)
Correct for Stray Light: Yes (USB4H08886)
Number of Pixels in Processed Spectrum: 3648
>>>>>Begin Processed Spectral Data<<<<<
178.14	-0.000
178.36	-0.000
178.57	-0.000
178.79	-0.000
179.01	-0.000
179.22	-0.000
179.44	-0.000
179.65	-0.000
179.87	-0.000
180.08	-0.000
180.30	-0.000
180.52	-0.000
180.73	-0.000
180.95	-0.000
181.16	-0.000
181.38	-0.000
181.59	-0.000
181.81	-0.000
182.03	-0.000
182.24	-0.000
182.46	-0.000
182.67	-0.000
182.89	-0.000
183.10	-0.000
183.32	-0.000
183.54	-0.000
183.75	-0.000
183.97	-0.000
184.18	-0.000
184.40	-0.000
184.61	-0.000
184.83	-0.000
185.04	-0.000
185.26	-0.000
185.48	-0.000
185.69	-0.000
185.91	-0.000
186.12	-0.000
186.34	-0.000
186.55	-0.000
186.77	-0.000
186.98	-0.000
187.20	-0.000
187.42	-0.000
187.63	-0.000
187.85	-0.000
188.06	-0.000
188.28	-0.000
188.49	-0.000
188.71	-0.000
188.92	-0.000
189.14	-0.000
189.36	-0.000
189.57	-0.000
189.79	-0.000
190.00	-0.000
190.22	-0.000
190.43	-0.000
190.65	-0.000
190.86	-0.000
191.08	-0.000
191.29	-0.000
191.51	-0.000
191.72	-0.000
191.94	-0.000
192.16	-0.000
192.37	-0.000
192.59	-0.000
192.80	-0.000
193.02	-0.000
193.23	-0.000
193.45	-0.000
193.66	-0.000
193.88	-0.000
194.09	-0.000
194.31	-0.000
194.52	-0.000
194.74	-0.000
194.95	-0.000
195.17	-0.000
195.38	-0.000
195.60	-0.000
195.81	-0.000
196.03	-0.000
196.25	-0.000
196.46	-0.000
196.68	-0.000
196.89	-0.000
197.11	-0.000
197.32	-0.000
197.54	-0.000
197.75	-0.000
197.97	-0.000
198.18	-0.000
198.40	-0.000
198.61	-0.000
198.83	-0.000
199.04	-0.000
199.26	-0.000
199.47	-0.000
199.69	-0.000
199.90	-0.000
200.12	-0.000
200.33	-0.000
200.55	-0.000
200.76	-0.000
200.98	-0.000
201.19	-0.000
201.41	-0.000
201.62	-0.000
201.84	-0.000
202.05	-0.000
202.27	-0.000
202.48	-0.000
202.70	-0.000
202.91	-0.000
203.13	-0.000
203.34	-0.000
203.56	-0.000
203.77	-0.000
203.99	-0.000
204.20	-0.000
204.42	-0.000
204.63	-0.000
204.85	-0.000
205.06	-0.000
205.28	-0.000
205.49	-0.000
205.71	-0.000
205.92	-0.000
206.14	-0.000
206.35	-0.000
206.56	-0.000
206.78	-0.000
206.99	-0.000
207.21	-0.000
207.42	-0.000
207.64	-0.000
207.85	-0.000
208.07	-0.000
208.28	-0.000
208.50	-0.000
208.71	-0.000
208.93	-0.000
209.14	-0.000
209.36	-0.000
209.57	-0.000
209.79	-0.000
210.00	-0.000
210.22	-0.000
210.43	-0.000
210.64	-0.000
210.86	-0.000
211.07	-0.000
211.29	-0.000
211.50	-0.000
211.72	-0.000
211.93	-0.000
212.15	-0.000
212.36	-0.000
212.58	-0.000
212.79	-0.000
213.01	-0.000
213.22	-0.000
213.43	-0.000
213.65	-0.000
213.86	-0.000
214.08	-0.000
214.29	-0.000
214.51	-0.000
214.72	-0.000
214.94	-0.000
215.15	-0.000
215.36	-0.000
215.58	-0.000
215.79	-0.000
216.01	-0.000
216.22	-0.000
216.44	-0.000
216.65	-0.000
216.87	-0.000
217.08	-0.000
217.29	-0.000
217.51	-0.000
217.72	-0.000
217.94	-0.000
218.15	-0.000
218.37	-0.000
218.58	-0.000
218.80	-0.000
219.01	-0.000
219.22	-0.000
219.44	-0.000
219.65	-0.000
219.87	-0.000
220.08	-0.000
220.30	-0.000
220.51	-0.000
220.72	-0.000
220.94	-0.000
221.15	-0.000
221.37	-0.000
221.58	-0.000
221.79	-0.000
222.01	-0.000
222.22	-0.000
222.44	-0.000
222.65	-0.000
222.87	-0.000
223.08	-0.000
223.29	-0.000
223.51	-0.000
223.72	-0.000
223.94	-0.000
224.15	-0.000
224.36	-0.000
224.58	-0.000
224.79	-0.000
225.01	-0.000
225.22	-0.000
225.44	-0.000
225.65	-0.000
225.86	-0.000
226.08	-0.000
226.29	-0.000
226.51	-0.000
226.72	-0.000
226.93	-0.000
227.15	-0.000
227.36	-0.000
227.58	-0.000
227.79	-0.000
228.00	-0.000
228.22	-0.000
228.43	-0.000
228.65	-0.000
228.86	-0.000
229.07	-0.000
229.29	-0.000
229.50	-0.000
229.72	-0.000
229.93	-0.000
230.14	-0.000
230.36	-0.000
230.57	-0.000
230.78	-0.000
231.00	-0.000
231.21	-0.000
231.43	-0.000
231.64	-0.000
231.85	-0.000
232.07	-0.000
232.28	-0.000
232.50	-0.000
232.71	-0.000
232.92	-0.000
233.14	-0.000
233.35	-0.000
233.56	-0.000
233.78	-0.000
233.99	-0.000
234.21	-0.000
234.42	-0.000
234.63	-0.000
234.85	-0.000
235.06	-0.000
235.27	-0.000
235.49	-0.000
235.70	-0.000
235.91	-0.000
236.13	-0.000
236.34	-0.000
236.56	-0.000
236.77	-0.000
236.98	-0.000
237.20	-0.000
237.41	-0.000
237.62	-0.000
237.84	-0.000
238.05	-0.000
238.26	-0.000
238.48	-0.000
238.69	-0.000
238.91	-0.000
239.12	-0.000
239.33	-0.000
239.55	-0.000
239.76	-0.000
239.97	-0.000
240.19	-0.000
240.40	-0.000
240.61	-0.000
240.83	-0.000
241.04	-0.000
241.25	-0.000
241.47	-0.000
241.68	-0.000
241.89	-0.000
242.11	-0.000
242.32	-0.000
242.53	-0.000
242.75	-0.000
242.96	-0.000
243.17	-0.000
243.39	-0.000
243.60	-0.000
243.81	-0.000
244.03	-0.000
244.24	-0.000
244.45	-0.000
244.67	-0.000
244.88	-0.000
245.09	-0.000
245.31	-0.000
245.52	-0.000
245.73	-0.000
245.95	-0.000
246.16	-0.000
246.37	-0.000
246.59	-0.000
246.80	-0.000
247.01	-0.000
247.23	-0.000
247.44	-0.000
247.65	-0.000
247.87	-0.000
248.08	-0.000
248.29	-0.000
248.51	-0.000
248.72	-0.000
248.93	-0.000
249.15	-0.000
249.36	-0.000
249.57	-0.000
249.78	-0.000
250.00	-0.000
250.21	-0.000
250.42	-0.000
250.64	-0.000
250.85	-0.000
251.06	-0.000
251.28	-0.000
251.49	-0.000
251.70	-0.000
251.92	-0.000
252.13	-0.000
252.34	-0.000
252.55	-0.000
252.77	-0.000
252.98	-0.000
253.19	-0.000
253.41	-0.000
253.62	-0.000
253.83	-0.000
254.05	-0.000
254.26	-0.000
254.47	-0.000
254.68	-0.000
254.90	-0.000
255.11	-0.000
255.32	-0.000
255.54	-0.000
255.75	-0.000
255.96	-0.000
256.17	-0.000
256.39	-0.000
256.60	-0.000
256.81	-0.000
257.03	-0.000
257.24	-0.000
257.45	-0.000
257.66	-0.000
257.88	-0.000
258.09	-0.000
258.30	-0.000
258.51	-0.000
258.73	-0.000
258.94	-0.000
259.15	-0.000
259.37	-0.000
259.58	-0.000
259.79	-0.000
260.00	-0.000
260.22	-0.000
260.43	-0.000
260.64	-0.000
260.85	-0.000
261.07	-0.000
261.28	-0.000
261.49	-0.000
261.71	-0.000
261.92	-0.000
262.13	-0.000
262.34	-0.000
262.56	-0.000
262.77	-0.000
262.98	-0.000
263.19	-0.000
263.41	-0.000
263.62	-0.000
263.83	-0.000
264.04	-0.000
264.26	-0.000
264.47	-0.000
264.68	-0.000
264.89	-0.000
265.11	-0.000
265.32	-0.000
265.53	-0.000
265.74	-0.000
265.96	-0.000
266.17	-0.000
266.38	-0.000
266.59	-0.000
266.81	-0.000
267.02	-0.000
267.23	-0.000
267.44	-0.000
267.65	-0.000
267.87	-0.000
268.08	-0.000
268.29	-0.000
268.50	-0.000
268.72	-0.000
268.93	-0.000
269.14	-0.000
269.35	-0.000
269.57	-0.000
269.78	-0.000
269.99	-0.000
270.20	-0.000
270.41	-0.000
270.63	-0.000
270.84	-0.000
271.05	-0.000
271.26	-0.000
271.48	-0.000
271.69	-0.000
271.90	-0.000
272.11	-0.000
272.32	-0.000
272.54	-0.000
272.75	-0.000
272.96	-0.000
273.17	-0.000
273.39	-0.000
273.60	-0.000
273.81	-0.000
274.02	-0.000
274.23	-0.000
274.45	-0.000
274.66	-0.000
274.87	-0.000
275.08	-0.000
275.29	-0.000
275.51	-0.000
275.72	-0.000
275.93	-0.000
276.14	-0.000
276.35	-0.000
276.57	-0.000
276.78	-0.000
276.99	-0.000
277.20	-0.000
277.41	-0.000
277.63	-0.000
277.84	-0.000
278.05	-0.000
278.26	-0.000
278.47	-0.000
278.69	-0.000
278.90	-0.000
279.11	-0.000
279.32	-0.000
279.53	-0.000
279.74	-0.000
279.96	-0.000
280.17	-0.000
280.38	-0.000
280.59	-0.000
280.80	-0.000
281.02	-0.000
281.23	-0.000
281.44	-0.000
281.65	-0.000
281.86	-0.000
282.07	-0.000
282.29	-0.000
282.50	-0.000
282.71	-0.000
282.92	-0.000
283.13	-0.000
283.35	-0.000
283.56	-0.000
283.77	-0.000
283.98	-0.000
284.19	-0.000
284.40	-0.000
284.62	-0.000
284.83	-0.000
285.04	-0.000
285.25	-0.000
285.46	-0.000
285.67	-0.000
285.88	-0.000
286.10	-0.000
286.31	-0.000
286.52	-0.000
286.73	-0.000
286.94	-0.000
287.15	-0.000
287.37	-0.000
287.58	-0.000
287.79	-0.000
288.00	-0.000
288.21	-0.000
288.42	-0.000
288.63	-0.000
288.85	-0.000
289.06	-0.000
289.27	-0.000
289.48	-0.000
289.69	-0.000
289.90	-0.000
290.11	-0.000
290.33	-0.000
290.54	-0.000
290.75	-0.000
290.96	-0.000
291.17	-0.000
291.38	-0.000
291.59	-0.000
291.81	-0.000
292.02	-0.000
292.23	-0.000
292.44	-0.000
292.65	-0.000
292.86	-0.000
293.07	-0.000
293.28	-0.000
293.50	-0.000
293.71	-0.000
293.92	-0.000
294.13	-0.000
294.34	-0.000
294.55	-0.000
294.76	-0.000
294.97	-0.000
295.19	-0.000
295.40	-0.000
295.61	-0.000
295.82	-0.000
296.03	-0.000
296.24	-0.000
296.45	-0.000
296.66	-0.000
296.87	-0.000
297.09	-0.000
297.30	-0.000
297.51	-0.000
297.72	-0.000
297.93	-0.000
298.14	-0.000
298.35	-0.000
298.56	-0.000
298.77	-0.000
298.99	-0.000
299.20	-0.000
299.41	-0.000
299.62	-0.000
299.83	-0.000
300.04	-0.000
300.25	-0.000
300.46	-0.000
300.67	-0.000
300.88	-0.000
301.10	-0.000
301.31	-0.000
301.52	-0.000
301.73	-0.000
301.94	-0.000
302.15	-0.000
302.36	-0.000
302.57	-0.000
302.78	-0.000
302.99	-0.000
303.20	-0.000
303.41	-0.000
303.63	-0.000
303.84	-0.000
304.05	-0.000
304.26	-0.000
304.47	-0.000
304.68	-0.000
304.89	-0.000
305.10	-0.000
305.31	-0.000
305.52	-0.000
305.73	-0.000
305.94	-0.000
306.15	-0.000
306.37	-0.000
306.58	-0.000
306.79	-0.000
307.00	-0.000
307.21	-0.000
307.42	-0.000
307.63	-0.000
307.84	-0.000
308.05	-0.000
308.26	-0.000
308.47	-0.000
308.68	-0.000
308.89	-0.000
309.10	-0.000
309.31	-0.000
309.52	-0.000
309.73	-0.000
309.95	-0.000
310.16	-0.000
310.37	-0.000
310.58	-0.000
310.79	-0.000
311.00	-0.000
311.21	-0.000
311.42	-0.000
311.63	-0.000
311.84	-0.000
312.05	-0.000
312.26	-0.000
312.47	-0.000
312.68	-0.000
312.89	-0.000
313.10	-0.000
313.31	-0.000
313.52	-0.000
313.73	-0.000
313.94	-0.000
314.15	-0.000
314.36	-0.000
314.57	-0.000
314.78	-0.000
314.99	-0.000
315.21	-0.000
315.42	-0.000
315.63	-0.000
315.84	-0.000
316.05	-0.000
316.26	-0.000
316.47	-0.000
316.68	-0.000
316.89	-0.000
317.10	-0.000
317.31	-0.000
317.52	-0.000
317.73	-0.000
317.94	-0.000
318.15	-0.000
318.36	-0.000
318.57	-0.000
318.78	-0.000
318.99	-0.000
319.20	-0.000
319.41	-0.000
319.62	-0.000
319.83	-0.000
320.04	-0.000
320.25	-0.000
320.46	-0.000
320.67	-0.000
320.88	-0.000
321.09	-0.000
321.30	-0.000
321.51	-0.000
321.72	-0.000
321.93	-0.000
322.14	-0.000
322.35	-0.000
322.56	-0.000
322.77	-0.000
322.98	-0.000
323.19	-0.000
323.40	-0.000
323.61	-0.000
323.82	-0.000
324.03	-0.000
324.24	-0.000
324.45	-0.000
324.66	-0.000
324.87	-0.000
325.08	-0.000
325.29	-0.000
325.50	-0.000
325.71	-0.000
325.92	-0.000
326.13	-0.000
326.34	-0.000
326.55	-0.000
326.76	-0.000
326.97	-0.000
327.18	-0.000
327.39	-0.000
327.60	-0.000
327.80	-0.000
328.01	-0.000
328.22	-0.000
328.43	-0.000
328.64	-0.000
328.85	-0.000
329.06	-0.000
329.27	-0.000
329.48	-0.000
329.69	-0.000
329.90	-0.000
330.11	-0.000
330.32	-0.000
330.53	-0.000
330.74	-0.000
330.95	-0.000
331.16	-0.000
331.37	-0.000
331.58	-0.000
331.79	-0.000
332.00	-0.000
332.21	-0.000
332.42	-0.000
332.63	-0.000
332.83	-0.000
333.04	-0.000
333.25	-0.000
333.46	-0.000
333.67	-0.000
333.88	-0.000
334.09	-0.000
334.30	-0.000
334.51	-0.000
334.72	-0.000
334.93	-0.000
335.14	-0.000
335.35	-0.000
335.56	-0.000
335.77	-0.000
335.98	-0.000
336.18	-0.000
336.39	-0.000
336.60	-0.000
336.81	-0.000
337.02	-0.000
337.23	-0.000
337.44	-0.000
337.65	-0.000
337.86	-0.000
338.07	-0.000
338.28	-0.000
338.49	-0.000
338.70	-0.000
338.91	-0.000
339.11	-0.000
339.32	-0.000
339.53	-0.000
339.74	-0.000
339.95	-0.000
340.16	-0.000
340.37	-0.000
340.58	-0.000
340.79	-0.000
341.00	-0.000
341.21	-0.000
341.41	-0.000
341.62	-0.000
341.83	-0.000
342.04	-0.000
342.25	-0.000
342.46	-0.000
342.67	-0.000
342.88	-0.000
343.09	-0.000
343.30	-0.000
343.50	-0.000
343.71	-0.000
343.92	-0.000
344.13	-0.000
344.34	-0.000
344.55	-0.000
344.76	-0.000
344.97	-0.000
345.18	-0.000
345.38	-0.000
345.59	-0.000
345.80	-0.000
346.01	-0.000
346.22	-0.000
346.43	-0.000
346.64	-0.000
346.85	-0.000
347.06	-0.000
347.26	-0.000
347.47	-0.000
347.68	-0.000
347.89	-0.000
348.10	-0.000
348.31	-0.000
348.52	-0.000
348.73	-0.000
348.93	-0.000
349.14	-0.000
349.35	-0.000
349.56	-0.000
349.77	-0.000
349.98	-0.000
350.19	-0.000
350.39	-0.000
350.60	-0.000
350.81	-0.000
351.02	-0.000
351.23	-0.000
351.44	-0.000
351.65	-0.000
351.86	-0.000
352.06	-0.000
352.27	-0.000
352.48	-0.000
352.69	-0.000
352.90	-0.000
353.11	-0.000
353.31	-0.000
353.52	-0.000
353.73	-0.000
353.94	-0.000
354.15	-0.000
354.36	-0.000
354.57	-0.000
354.77	-0.000
354.98	-0.000
355.19	-0.000
355.40	-0.000
355.61	-0.000
355.82	-0.000
356.02	-0.000
356.23	-0.000
356.44	-0.000
356.65	-0.000
356.86	-0.000
357.07	-0.000
357.27	-0.000
357.48	-0.000
357.69	-0.000
357.90	-0.000
358.11	-0.000
358.32	-0.000
358.52	-0.000
358.73	-0.000
358.94	-0.000
359.15	-0.000
359.36	-0.000
359.56	-0.000
359.77	-0.000
359.98	-0.000
360.19	-0.000
360.40	-0.000
360.61	-0.000
360.81	-0.000
361.02	-0.000
361.23	-0.000
361.44	-0.000
361.65	-0.000
361.85	-0.000
362.06	-0.000
362.27	-0.000
362.48	-0.000
362.69	-0.000
362.89	-0.000
363.10	-0.000
363.31	-0.000
363.52	-0.000
363.73	-0.000
363.93	-0.000
364.14	-0.000
364.35	-0.000
364.56	-0.000
364.77	-0.000
364.97	-0.000
365.18	-0.000
365.39	-0.000
365.60	3.654
365.81	3.599
366.01	3.726
366.22	2.960
366.43	2.909
366.64	3.055
366.84	-0.000
367.05	-0.000
367.26	-0.000
367.47	-0.000
367.68	-0.000
367.88	-0.000
368.09	3.132
368.30	3.450
368.51	3.599
368.71	3.725
368.92	-0.000
369.13	-0.000
369.34	-0.000
369.55	-0.000
369.75	-0.000
369.96	-0.000
370.17	-0.000
370.38	-0.000
370.58	-0.000
370.79	-0.000
371.00	-0.000
371.21	-0.000
371.41	-0.000
371.62	-0.000
371.83	-0.000
372.04	-0.000
372.24	3.258
372.45	3.279
372.66	3.163
372.87	2.939
373.07	2.675
373.28	2.770
373.49	3.290
373.70	2.434
373.90	2.411
374.11	3.050
374.32	2.971
374.53	2.895
374.73	3.069
374.94	3.209
375.15	2.990
375.36	2.768
375.56	-0.000
375.77	-0.000
375.98	-0.000
376.19	-0.000
376.39	2.714
376.60	3.055
376.81	2.977
377.02	2.743
377.22	2.744
377.43	2.724
377.64	2.752
377.84	2.282
378.05	2.448
378.26	2.796
378.47	2.739
378.67	2.576
378.88	2.439
379.09	2.437
379.30	2.448
379.50	2.391
379.71	2.461
379.92	2.524
380.12	2.509
380.33	2.270
380.54	2.166
380.75	2.343
380.95	2.339
381.16	2.331
381.37	2.343
381.57	2.384
381.78	2.381
381.99	2.406
382.20	2.416
382.40	2.560
382.61	2.506
382.82	2.408
383.02	2.223
383.23	2.285
383.44	2.268
383.64	2.261
383.85	2.304
384.06	2.376
384.27	2.311
384.47	2.275
384.68	2.257
384.89	2.445
385.09	2.446
385.30	2.400
385.51	2.358
385.71	2.441
385.92	2.415
386.13	2.412
386.33	2.586
386.54	2.585
386.75	2.513
386.95	2.393
387.16	2.258
387.37	2.289
387.58	2.289
387.78	2.262
387.99	2.202
388.20	2.234
388.40	2.164
388.61	2.053
388.82	2.136
389.02	2.169
389.23	2.173
389.44	2.144
389.64	2.164
389.85	2.550
390.06	2.473
390.26	2.534
390.47	2.518
390.68	2.610
390.88	2.551
391.09	2.343
391.30	2.344
391.50	2.329
391.71	2.323
391.92	2.248
392.12	2.053
392.33	2.067
392.53	2.055
392.74	2.073
392.95	2.050
393.15	2.095
393.36	2.127
393.57	2.095
393.77	2.132
393.98	2.158
394.19	2.150
394.39	2.149
394.60	2.166
394.81	2.200
395.01	2.141
395.22	2.119
395.43	2.116
395.63	2.202
395.84	2.206
396.04	2.162
396.25	2.182
396.46	2.207
396.66	2.149
396.87	2.113
397.08	2.064
397.28	2.104
397.49	2.118
397.69	2.073
397.90	1.977
398.11	1.985
398.31	1.978
398.52	1.932
398.73	1.970
398.93	1.956
399.14	1.943
399.34	1.936
399.55	1.952
399.76	1.954
399.96	1.960
400.17	1.955
400.37	1.945
400.58	2.057
400.79	2.092
400.99	2.026
401.20	2.139
401.41	2.169
401.61	2.170
401.82	2.351
402.02	2.354
402.23	2.389
402.44	2.374
402.64	2.365
402.85	2.180
403.05	2.143
403.26	2.124
403.47	2.017
403.67	2.010
403.88	2.020
404.08	1.909
404.29	1.891
404.50	1.886
404.70	1.883
404.91	1.872
405.11	1.849
405.32	1.857
405.52	1.863
405.73	1.862
405.94	1.852
406.14	1.883
406.35	1.904
406.55	1.898
406.76	1.874
406.97	1.891
407.17	1.927
407.38	1.933
407.58	1.923
407.79	1.951
407.99	1.973
408.20	1.973
408.41	1.918
408.61	1.900
408.82	1.902
409.02	1.903
409.23	1.886
409.43	1.870
409.64	1.869
409.84	1.871
410.05	1.837
410.26	1.822
410.46	1.821
410.67	1.823
410.87	1.846
411.08	1.872
411.28	1.875
411.49	1.896
411.69	1.874
411.90	1.900
412.11	1.904
412.31	1.920
412.52	1.910
412.72	1.916
412.93	1.912
413.13	1.903
413.34	1.869
413.54	1.899
413.75	1.918
413.95	1.922
414.16	1.886
414.37	1.923
414.57	1.924
414.78	1.958
414.98	1.951
415.19	1.973
415.39	1.914
415.60	1.944
415.80	1.937
416.01	1.902
416.21	1.909
416.42	1.913
416.62	1.860
416.83	1.861
417.03	1.852
417.24	1.850
417.44	1.833
417.65	1.836
417.86	1.831
418.06	1.807
418.27	1.794
418.47	1.815
418.68	1.814
418.88	1.812
419.09	1.800
419.29	1.806
419.50	1.807
419.70	1.804
419.91	1.795
420.11	1.778
420.32	1.798
420.52	1.801
420.73	1.799
420.93	1.808
421.14	1.834
421.34	1.828
421.55	1.807
421.75	1.806
421.96	1.816
422.16	1.818
422.37	1.811
422.57	1.788
422.78	1.800
422.98	1.772
423.19	1.766
423.39	1.750
423.60	1.783
423.80	1.789
424.01	1.781
424.21	1.806
424.42	1.811
424.62	1.820
424.83	1.814
425.03	1.810
425.23	1.819
425.44	1.811
425.64	1.819
425.85	1.801
426.05	1.802
426.26	1.807
426.46	1.767
426.67	1.764
426.87	1.808
427.08	1.805
427.28	1.791
427.49	1.804
427.69	1.805
427.90	1.789
428.10	1.771
428.31	1.775
428.51	1.794
428.71	1.795
428.92	1.813
429.12	1.779
429.33	1.790
429.53	1.840
429.74	1.915
429.94	1.929
430.15	1.928
430.35	1.925
430.56	1.897
430.76	1.883
430.96	1.889
431.17	1.862
431.37	1.847
431.58	1.832
431.78	1.791
431.99	1.717
432.19	1.746
432.40	1.765
432.60	1.772
432.80	1.800
433.01	1.787
433.21	1.789
433.42	1.798
433.62	1.797
433.83	1.801
434.03	1.830
434.23	1.851
434.44	1.831
434.64	1.805
434.85	1.863
435.05	1.872
435.26	1.878
435.46	1.873
435.66	1.874
435.87	1.872
436.07	1.869
436.28	1.827
436.48	1.807
436.69	1.802
436.89	1.807
437.09	1.744
437.30	1.734
437.50	1.736
437.71	1.888
437.91	1.882
438.11	1.897
438.32	1.957
438.52	1.957
438.73	1.948
438.93	1.932
439.13	1.925
439.34	1.989
439.54	1.959
439.75	1.965
439.95	1.811
440.15	1.869
440.36	1.855
440.56	1.823
440.77	1.836
440.97	1.845
441.17	1.825
441.38	1.843
441.58	1.805
441.79	1.805
441.99	1.800
442.19	1.772
442.40	1.742
442.60	1.740
442.81	1.726
443.01	1.722
443.21	1.723
443.42	1.726
443.62	1.715
443.82	1.713
444.03	1.724
444.23	1.720
444.44	1.733
444.64	1.731
444.84	1.749
445.05	1.750
445.25	1.741
445.45	1.741
445.66	1.754
445.86	1.754
446.06	1.778
446.27	1.766
446.47	1.793
446.68	1.775
446.88	1.762
447.08	1.749
447.29	1.763
447.49	1.762
447.69	1.759
447.90	1.752
448.10	1.775
448.30	1.745
448.51	1.769
448.71	1.749
448.91	1.765
449.12	1.756
449.32	1.782
449.52	1.770
449.73	1.804
449.93	1.798
450.14	1.813
450.34	1.806
450.54	1.828
450.75	1.799
450.95	1.792
451.15	1.789
451.36	1.824
451.56	1.792
451.76	1.792
451.97	1.765
452.17	1.768
452.37	1.753
452.58	1.734
452.78	1.734
452.98	1.753
453.19	1.759
453.39	1.772
453.59	1.750
453.79	1.752
454.00	1.757
454.20	1.754
454.40	1.763
454.61	1.785
454.81	1.789
455.01	1.773
455.22	1.792
455.42	1.803
455.62	1.781
455.83	1.783
456.03	1.820
456.23	1.820
456.44	1.825
456.64	1.813
456.84	1.806
457.04	1.812
457.25	1.814
457.45	1.775
457.65	1.765
457.86	1.778
458.06	1.769
458.26	1.731
458.47	1.728
458.67	1.738
458.87	1.740
459.07	1.724
459.28	1.738
459.48	1.756
459.68	1.756
459.89	1.748
460.09	1.734
460.29	1.739
460.49	1.752
460.70	1.752
460.90	1.747
461.10	1.748
461.31	1.750
461.51	1.735
461.71	1.765
461.91	1.772
462.12	1.783
462.32	1.781
462.52	1.783
462.72	1.800
462.93	1.799
463.13	1.791
463.33	1.804
463.53	1.809
463.74	1.802
463.94	1.748
464.14	1.758
464.35	1.764
464.55	1.763
464.75	1.758
464.95	1.744
465.16	1.753
465.36	1.745
465.56	1.738
465.76	1.732
465.97	1.737
466.17	1.741
466.37	1.722
466.57	1.729
466.78	1.734
466.98	1.731
467.18	1.715
467.38	1.710
467.59	1.720
467.79	1.741
467.99	1.738
468.19	1.741
468.39	1.768
468.60	1.769
468.80	1.748
469.00	1.767
469.20	1.776
469.41	1.782
469.61	1.778
469.81	1.778
470.01	1.768
470.22	1.770
470.42	1.759
470.62	1.737
470.82	1.745
471.02	1.748
471.23	1.723
471.43	1.724
471.63	1.743
471.83	1.744
472.04	1.735
472.24	1.717
472.44	1.769
472.64	1.770
472.84	1.757
473.05	1.748
473.25	1.763
473.45	1.757
473.65	1.742
473.85	1.739
474.06	1.740
474.26	1.734
474.46	1.758
474.66	1.719
474.86	1.723
475.07	1.721
475.27	1.719
475.47	1.701
475.67	1.700
475.87	1.721
476.08	1.701
476.28	1.718
476.48	1.736
476.68	1.715
476.88	1.699
477.09	1.704
477.29	1.716
477.49	1.717
477.69	1.717
477.89	1.724
478.09	1.707
478.30	1.728
478.50	1.701
478.70	1.688
478.90	1.688
479.10	1.714
479.31	1.729
479.51	1.716
479.71	1.714
479.91	1.709
480.11	1.696
480.31	1.696
480.52	1.679
480.72	1.679
480.92	1.672
481.12	1.666
481.32	1.645
481.52	1.629
481.72	1.629
481.93	1.657
482.13	1.662
482.33	1.663
482.53	1.651
482.73	1.661
482.93	1.665
483.14	1.663
483.34	1.659
483.54	1.667
483.74	1.654
483.94	1.650
484.14	1.617
484.34	1.617
484.55	1.614
484.75	1.616
484.95	1.603
485.15	1.604
485.35	1.604
485.55	1.603
485.75	1.590
485.96	1.595
486.16	1.604
486.36	1.603
486.56	1.595
486.76	1.605
486.96	1.611
487.16	1.610
487.36	1.602
487.57	1.601
487.77	1.605
487.97	1.609
488.17	1.601
488.37	1.599
488.57	1.602
488.77	1.603
488.97	1.593
489.18	1.585
489.38	1.600
489.58	1.599
489.78	1.600
489.98	1.596
490.18	1.592
490.38	1.595
490.58	1.586
490.78	1.595
490.98	1.600
491.19	1.602
491.39	1.600
491.59	1.590
491.79	1.611
491.99	1.612
492.19	1.613
492.39	1.637
492.59	1.637
492.79	1.652
492.99	1.651
493.20	1.653
493.40	1.652
493.60	1.664
493.80	1.660
494.00	1.638
494.20	1.641
494.40	1.638
494.60	1.620
494.80	1.655
495.00	1.643
495.20	1.635
495.40	1.630
495.61	1.642
495.81	1.638
496.01	1.663
496.21	1.680
496.41	1.678
496.61	1.680
496.81	1.675
497.01	1.635
497.21	1.633
497.41	1.636
497.61	1.632
497.81	1.621
498.01	1.620
498.21	1.598
498.41	1.580
498.61	1.579
498.82	1.588
499.02	1.594
499.22	1.598
499.42	1.595
499.62	1.600
499.82	1.606
500.02	1.613
500.22	1.606
500.42	1.626
500.62	1.629
500.82	1.629
501.02	1.615
501.22	1.619
501.42	1.618
501.62	1.634
501.82	1.631
502.02	1.632
502.22	1.626
502.42	1.643
502.62	1.622
502.82	1.621
503.02	1.630
503.22	1.631
503.42	1.620
503.63	1.620
503.83	1.606
504.03	1.601
504.23	1.594
504.43	1.599
504.63	1.607
504.83	1.606
505.03	1.605
505.23	1.611
505.43	1.624
505.63	1.627
505.83	1.629
506.03	1.635
506.23	1.648
506.43	1.649
506.63	1.643
506.83	1.625
507.03	1.640
507.23	1.640
507.43	1.623
507.63	1.621
507.83	1.620
508.03	1.618
508.23	1.614
508.43	1.603
508.63	1.614
508.83	1.615
509.03	1.627
509.23	1.618
509.43	1.624
509.63	1.627
509.83	1.622
510.03	1.642
510.23	1.648
510.43	1.655
510.63	1.657
510.83	1.650
511.03	1.660
511.23	1.640
511.43	1.638
511.63	1.647
511.83	1.660
512.03	1.658
512.22	1.640
512.42	1.642
512.62	1.647
512.82	1.647
513.02	1.647
513.22	1.642
513.42	1.655
513.62	1.681
513.82	1.663
514.02	1.659
514.22	1.668
514.42	1.668
514.62	1.668
514.82	1.666
515.02	1.682
515.22	1.715
515.42	1.710
515.62	1.728
515.82	1.711
516.02	1.718
516.22	1.723
516.42	1.738
516.62	1.743
516.82	1.750
517.01	1.736
517.21	1.728
517.41	1.761
517.61	1.768
517.81	1.737
518.01	1.730
518.21	1.731
518.41	1.721
518.61	1.713
518.81	1.717
519.01	1.719
519.21	1.723
519.41	1.716
519.61	1.663
519.81	1.682
520.00	1.685
520.20	1.690
520.40	1.712
520.60	1.710
520.80	1.700
521.00	1.711
521.20	1.712
521.40	1.751
521.60	1.750
521.80	1.740
522.00	1.727
522.20	1.736
522.39	1.731
522.59	1.706
522.79	1.724
522.99	1.733
523.19	1.716
523.39	1.709
523.59	1.689
523.79	1.712
523.99	1.733
524.19	1.733
524.38	1.722
524.58	1.733
524.78	1.731
524.98	1.710
525.18	1.735
525.38	1.738
525.58	1.737
525.78	1.720
525.98	1.705
526.18	1.696
526.37	1.689
526.57	1.710
526.77	1.707
526.97	1.710
527.17	1.713
527.37	1.681
527.57	1.698
527.77	1.701
527.96	1.711
528.16	1.700
528.36	1.719
528.56	1.732
528.76	1.709
528.96	1.707
529.16	1.712
529.36	1.732
529.55	1.731
529.75	1.711
529.95	1.711
530.15	1.710
530.35	1.735
530.55	1.707
530.75	1.709
530.94	1.717
531.14	1.720
531.34	1.713
531.54	1.702
531.74	1.719
531.94	1.747
532.13	1.738
532.33	1.762
532.53	1.742
532.73	1.746
532.93	1.729
533.13	1.737
533.33	1.732
533.52	1.735
533.72	1.770
533.92	1.757
534.12	1.734
534.32	1.738
534.52	1.716
534.71	1.731
534.91	1.740
535.11	1.762
535.31	1.746
535.51	1.761
535.71	1.769
535.90	1.734
536.10	1.748
536.30	1.762
536.50	1.762
536.70	1.767
536.89	1.750
537.09	1.752
537.29	1.760
537.49	1.766
537.69	1.750
537.89	1.758
538.08	1.752
538.28	1.733
538.48	1.740
538.68	1.751
538.88	1.761
539.07	1.761
539.27	1.740
539.47	1.731
539.67	1.732
539.87	1.744
540.06	1.726
540.26	1.730
540.46	1.745
540.66	1.718
540.86	1.709
541.05	1.705
541.25	1.715
541.45	1.719
541.65	1.708
541.84	1.721
542.04	1.716
542.24	1.718
542.44	1.710
542.64	1.717
542.83	1.736
543.03	1.734
543.23	1.721
543.43	1.724
543.62	1.736
543.82	1.732
544.02	1.721
544.22	1.722
544.42	1.745
544.61	1.754
544.81	1.737
545.01	1.723
545.21	1.739
545.40	1.737
545.60	1.724
545.80	1.749
546.00	1.750
546.19	1.744
546.39	1.735
546.59	1.716
546.79	1.728
546.98	1.728
547.18	1.729
547.38	1.730
547.58	1.752
547.77	1.751
547.97	1.717
548.17	1.724
548.37	1.727
548.56	1.735
548.76	1.731
548.96	1.731
549.16	1.742
549.35	1.747
549.55	1.727
549.75	1.723
549.95	1.749
550.14	1.750
550.34	1.741
550.54	1.783
550.73	1.808
550.93	1.816
551.13	1.802
551.33	1.793
551.52	1.787
551.72	1.791
551.92	1.777
552.12	1.783
552.31	1.781
552.51	1.784
552.71	1.741
552.90	1.745
553.10	1.744
553.30	1.740
553.50	1.736
553.69	1.746
553.89	1.747
554.09	1.751
554.28	1.723
554.48	1.736
554.68	1.748
554.87	1.745
555.07	1.724
555.27	1.722
555.47	1.733
555.66	1.734
555.86	1.733
556.06	1.756
556.25	1.767
556.45	1.861
556.65	1.852
556.84	1.886
557.04	1.932
557.24	1.941
557.43	1.948
557.63	1.992
557.83	2.003
558.02	2.006
558.22	2.081
558.42	2.072
558.61	1.930
558.81	1.928
559.01	1.876
559.21	1.857
559.40	1.855
559.60	1.859
559.80	1.813
559.99	1.827
560.19	1.834
560.39	1.771
560.58	1.758
560.78	1.762
560.97	1.791
561.17	1.786
561.37	1.776
561.56	1.794
561.76	1.808
561.96	1.809
562.15	1.790
562.35	1.820
562.55	1.818
562.74	1.821
562.94	1.813
563.14	1.791
563.33	1.796
563.53	1.796
563.73	1.772
563.92	1.782
564.12	1.794
564.31	1.812
564.51	1.792
564.71	1.815
564.90	1.829
565.10	1.832
565.30	1.883
565.49	1.884
565.69	1.899
565.89	1.901
566.08	1.867
566.28	1.896
566.47	1.903
566.67	1.874
566.87	1.849
567.06	1.876
567.26	1.960
567.46	1.894
567.65	1.882
567.85	1.896
568.04	1.911
568.24	1.899
568.44	1.858
568.63	1.845
568.83	1.865
569.02	1.847
569.22	1.801
569.42	1.763
569.61	1.776
569.81	1.768
570.00	1.755
570.20	1.772
570.40	1.785
570.59	1.787
570.79	1.771
570.98	1.746
571.18	1.754
571.38	1.749
571.57	1.731
571.77	1.712
571.96	1.738
572.16	1.723
572.35	1.682
572.55	1.692
572.75	1.680
572.94	1.678
573.14	1.673
573.33	1.677
573.53	1.678
573.73	1.671
573.92	1.664
574.12	1.651
574.31	1.665
574.51	1.671
574.70	1.643
574.90	1.650
575.09	1.666
575.29	1.664
575.49	1.646
575.68	1.658
575.88	1.667
576.07	1.675
576.27	1.659
576.46	1.646
576.66	1.641
576.86	1.640
577.05	1.631
577.25	1.621
577.44	1.634
577.64	1.635
577.83	1.620
578.03	1.619
578.22	1.609
578.42	1.608
578.61	1.602
578.81	1.607
579.00	1.609
579.20	1.606
579.40	1.602
579.59	1.593
579.79	1.596
579.98	1.594
580.18	1.603
580.37	1.609
580.57	1.623
580.76	1.665
580.96	1.655
581.15	1.663
581.35	1.672
581.54	1.667
581.74	1.663
581.93	1.675
582.13	1.681
582.32	1.657
582.52	1.646
582.71	1.642
582.91	1.607
583.10	1.609
583.30	1.601
583.49	1.598
583.69	1.619
583.88	1.630
584.08	1.618
584.27	1.633
584.47	1.649
584.66	1.652
584.86	1.644
585.05	1.653
585.25	1.667
585.44	1.666
585.64	1.663
585.83	1.646
586.03	1.652
586.22	1.647
586.42	1.626
586.61	1.646
586.81	1.668
587.00	1.670
587.20	1.656
587.39	1.660
587.59	1.669
587.78	1.674
587.98	1.676
588.17	1.676
588.37	1.691
588.56	1.701
588.76	1.664
588.95	1.658
589.15	1.694
589.34	1.716
589.54	1.705
589.73	1.710
589.92	1.723
590.12	1.718
590.31	1.703
590.51	1.752
590.70	1.759
590.90	1.759
591.09	1.744
591.29	1.714
591.48	1.704
591.68	1.710
591.87	1.702
592.06	1.701
592.26	1.727
592.45	1.719
592.65	1.667
592.84	1.668
593.04	1.689
593.23	1.706
593.43	1.696
593.62	1.701
593.81	1.708
594.01	1.707
594.20	1.695
594.40	1.685
594.59	1.700
594.79	1.707
594.98	1.698
595.17	1.688
595.37	1.693
595.56	1.699
595.76	1.696
595.95	1.701
596.14	1.716
596.34	1.722
596.53	1.704
596.73	1.715
596.92	1.714
597.12	1.733
597.31	1.734
597.50	1.721
597.70	1.748
597.89	1.738
598.09	1.717
598.28	1.727
598.47	1.753
598.67	1.746
598.86	1.721
599.06	1.752
599.25	1.752
599.44	1.741
599.64	1.729
599.83	1.707
600.03	1.739
600.22	1.739
600.41	1.749
600.61	1.726
600.80	1.745
601.00	1.750
601.19	1.718
601.38	1.704
601.58	1.716
601.77	1.726
601.96	1.743
602.16	1.734
602.35	1.826
602.55	1.790
602.74	1.791
602.93	1.796
603.13	1.834
603.32	1.837
603.51	1.839
603.71	1.875
603.90	1.880
604.09	1.885
604.29	1.854
604.48	1.782
604.68	1.790
604.87	1.780
605.06	1.759
605.26	1.735
605.45	1.738
605.64	1.729
605.84	1.696
606.03	1.695
606.22	1.687
606.42	1.685
606.61	1.670
606.80	1.675
607.00	1.700
607.19	1.702
607.38	1.703
607.58	1.724
607.77	1.746
607.96	1.749
608.16	1.744
608.35	1.792
608.54	1.827
608.74	1.858
608.93	1.936
609.12	1.961
609.32	1.996
609.51	2.027
609.70	1.987
609.90	2.010
610.09	2.066
610.28	2.145
610.48	2.013
610.67	2.026
610.86	2.028
611.06	1.919
611.25	1.884
611.44	1.891
611.64	1.885
611.83	1.933
612.02	1.896
612.21	1.879
612.41	1.861
612.60	1.862
612.79	1.825
612.99	1.830
613.18	1.860
613.37	1.842
613.57	1.826
613.76	1.841
613.95	1.812
614.14	1.809
614.34	1.788
614.53	1.794
614.72	1.810
614.92	1.814
615.11	1.789
615.30	1.756
615.49	1.776
615.69	1.795
615.88	1.773
616.07	1.786
616.26	1.809
616.46	1.818
616.65	1.799
616.84	1.794
617.04	1.797
617.23	1.823
617.42	1.827
617.61	1.850
617.81	1.844
618.00	1.862
618.19	1.841
618.38	1.876
618.58	1.922
618.77	1.931
618.96	1.927
619.15	1.957
619.35	1.993
619.54	2.000
619.73	1.945
619.92	1.972
620.12	2.018
620.31	2.027
620.50	1.947
620.69	1.932
620.89	1.962
621.08	1.970
621.27	1.977
621.46	1.947
621.66	2.010
621.85	2.011
622.04	1.978
622.23	2.009
622.43	2.011
622.62	2.016
622.81	2.024
623.00	2.020
623.19	2.057
623.39	2.034
623.58	2.002
623.77	1.980
623.96	2.018
624.16	2.031
624.35	1.963
624.54	2.000
624.73	2.051
624.92	2.019
625.12	1.982
625.31	1.993
625.50	2.023
625.69	2.031
625.88	1.989
626.08	1.989
626.27	1.992
626.46	1.989
626.65	1.954
626.84	1.945
627.04	2.006
627.23	2.017
627.42	1.966
627.61	1.996
627.80	2.020
628.00	2.036
628.19	2.005
628.38	2.031
628.57	2.047
628.76	2.045
628.96	2.009
629.15	2.017
629.34	2.063
629.53	2.072
629.72	1.994
629.91	2.010
630.11	2.028
630.30	2.024
630.49	2.111
630.68	2.123
630.87	2.195
631.06	2.249
631.26	2.150
631.45	2.162
631.64	2.361
631.83	2.421
632.02	2.370
632.21	2.352
632.41	2.676
632.60	2.361
632.79	2.326
632.98	2.329
633.17	2.339
633.36	2.398
633.55	2.325
633.75	2.209
633.94	2.229
634.13	2.229
634.32	2.209
634.51	2.102
634.70	2.125
634.89	2.112
635.09	2.060
635.28	2.062
635.47	2.072
635.66	2.117
635.85	2.070
636.04	2.104
636.23	2.203
636.43	2.211
636.62	2.205
636.81	2.190
637.00	2.230
637.19	2.308
637.38	2.271
637.57	2.297
637.76	2.350
637.95	2.363
638.15	2.270
638.34	2.180
638.53	2.242
638.72	2.261
638.91	2.217
639.10	2.189
639.29	2.154
639.48	2.159
639.67	2.147
639.87	2.122
640.06	2.244
640.25	2.239
640.44	2.255
640.63	2.292
640.82	2.337
641.01	2.341
641.20	2.371
641.39	2.525
641.58	2.615
641.78	2.563
641.97	2.425
642.16	-0.000
642.35	-0.000
642.54	-0.000
642.73	-0.000
642.92	4.254
643.11	-0.000
643.30	-0.000
643.49	3.201
643.68	-0.000
643.87	-0.000
644.06	-0.000
644.25	2.143
644.45	2.240
644.64	2.271
644.83	2.288
645.02	2.250
645.21	2.216
645.40	2.208
645.59	2.217
645.78	2.126
645.97	2.198
646.16	2.185
646.35	2.171
646.54	2.118
646.73	2.151
646.92	2.192
647.11	2.182
647.30	2.130
647.49	2.186
647.68	2.167
647.88	2.144
648.07	2.060
648.26	2.142
648.45	2.131
648.64	2.101
648.83	2.052
649.02	2.113
649.21	2.402
649.40	2.367
649.59	2.252
649.78	2.310
649.97	-0.000
650.16	-0.000
650.35	2.798
650.54	-0.000
650.73	-0.000
650.92	-0.000
651.11	-0.000
651.30	3.421
651.49	-0.000
651.68	-0.000
651.87	-0.000
652.06	2.391
652.25	2.469
652.44	2.478
652.63	2.248
652.82	2.213
653.01	2.161
653.20	2.116
653.39	1.939
653.58	1.911
653.77	1.914
653.96	1.875
654.15	1.806
654.34	1.804
654.53	1.787
654.72	1.751
654.91	1.688
655.10	1.671
655.29	1.668
655.48	1.655
655.67	1.627
655.86	1.611
656.05	1.606
656.24	1.606
656.43	1.578
656.62	1.585
656.81	1.606
657.00	1.605
657.19	1.604
657.38	1.613
657.57	1.620
657.76	1.648
657.95	1.647
658.14	1.682
658.33	1.715
658.51	1.771
658.70	1.761
658.89	1.751
659.08	1.815
659.27	1.877
659.46	1.859
659.65	1.915
659.84	1.945
660.03	1.983
660.22	1.983
660.41	2.041
660.60	2.029
660.79	2.076
660.98	2.223
661.17	2.162
661.36	2.121
661.55	2.159
661.74	2.111
661.92	2.153
662.11	2.177
662.30	2.148
662.49	2.037
662.68	2.012
662.87	2.023
663.06	1.926
663.25	1.961
663.44	1.968
663.63	1.966
663.82	1.963
664.01	1.893
664.20	1.876
664.38	1.897
664.57	1.896
664.76	1.900
664.95	1.915
665.14	1.978
665.33	1.926
665.52	2.087
665.71	2.231
665.90	2.247
666.09	2.334
666.28	2.294
666.46	2.268
666.65	2.279
666.84	2.263
667.03	2.177
667.22	2.156
667.41	2.227
667.60	1.998
667.79	1.885
667.98	1.894
668.16	1.903
668.35	1.904
668.54	1.862
668.73	1.875
668.92	1.888
669.11	1.878
669.30	1.820
669.49	1.789
669.67	1.820
669.86	1.864
670.05	1.843
670.24	1.821
670.43	1.822
670.62	1.815
670.81	1.780
671.00	1.785
671.18	1.779
671.37	1.773
671.56	1.750
671.75	1.731
671.94	1.704
672.13	1.693
672.32	1.662
672.50	1.659
672.69	1.660
672.88	1.665
673.07	1.637
673.26	1.660
673.45	1.669
673.63	1.675
673.82	1.660
674.01	1.668
674.20	1.662
674.39	1.659
674.58	1.654
674.76	1.664
674.95	1.667
675.14	1.671
675.33	1.639
675.52	1.634
675.71	1.635
675.89	1.629
676.08	1.610
676.27	1.615
676.46	1.621
676.65	1.620
676.84	1.615
677.02	1.619
677.21	1.630
677.40	1.632
677.59	1.628
677.78	1.626
677.96	1.650
678.15	1.648
678.34	1.644
678.53	1.651
678.72	1.648
678.90	1.634
679.09	1.620
679.28	1.607
679.47	1.601
679.66	1.597
679.84	1.590
680.03	1.573
680.22	1.572
680.41	1.583
680.60	1.566
680.78	1.567
680.97	1.580
681.16	1.577
681.35	1.570
681.53	1.570
681.72	1.577
681.91	1.588
682.10	1.579
682.29	1.588
682.47	1.574
682.66	1.557
682.85	1.553
683.04	1.544
683.22	1.543
683.41	1.557
683.60	1.553
683.79	1.560
683.97	1.552
684.16	1.553
684.35	1.536
684.54	1.547
684.72	1.565
684.91	1.569
685.10	1.556
685.29	1.568
685.47	1.551
685.66	1.550
685.85	1.529
686.04	1.529
686.22	1.540
686.41	1.560
686.60	1.543
686.79	1.569
686.97	1.575
687.16	1.590
687.35	1.575
687.54	1.602
687.72	1.627
687.91	1.628
688.10	1.650
688.29	1.649
688.47	1.625
688.66	1.627
688.85	1.596
689.03	1.587
689.22	1.637
689.41	1.641
689.60	1.606
689.78	1.591
689.97	1.599
690.16	1.584
690.34	1.562
690.53	1.568
690.72	1.568
690.91	1.560
691.09	1.552
691.28	1.505
691.47	1.501
691.65	1.503
691.84	1.489
692.03	1.486
692.21	1.474
692.40	1.474
692.59	1.463
692.77	1.463
692.96	1.468
693.15	1.472
693.34	1.462
693.52	1.460
693.71	1.458
693.90	1.466
694.08	1.475
694.27	1.485
694.46	1.562
694.64	1.566
694.83	1.562
695.02	1.559
695.20	1.557
695.39	1.558
695.58	1.559
695.76	1.565
695.95	1.555
696.14	1.548
696.32	1.532
696.51	1.463
696.70	1.466
696.88	1.476
697.07	1.469
697.26	1.473
697.44	1.479
697.63	1.472
697.81	1.462
698.00	1.471
698.19	1.468
698.37	1.471
698.56	1.469
698.75	1.469
698.93	1.462
699.12	1.462
699.31	1.462
699.49	1.459
699.68	1.468
699.87	1.490
700.05	1.486
700.24	1.482
700.42	1.487
700.61	1.489
700.80	1.479
700.98	1.485
701.17	1.489
701.36	1.481
701.54	1.481
701.73	1.485
701.91	1.469
702.10	1.466
702.29	1.463
702.47	1.462
702.66	1.473
702.84	1.486
703.03	1.478
703.22	1.495
703.40	1.496
703.59	1.512
703.77	1.517
703.96	1.514
704.15	1.520
704.33	1.517
704.52	1.512
704.70	1.503
704.89	1.496
705.08	1.491
705.26	1.471
705.45	1.473
705.63	1.465
705.82	1.450
706.00	1.445
706.19	1.443
706.38	1.443
706.56	1.441
706.75	1.433
706.93	1.428
707.12	1.434
707.30	1.432
707.49	1.422
707.68	1.416
707.86	1.412
708.05	1.413
708.23	1.403
708.42	1.407
708.60	1.427
708.79	1.427
708.98	1.426
709.16	1.421
709.35	1.432
709.53	1.463
709.72	1.458
709.90	1.469
710.09	1.478
710.27	1.486
710.46	1.513
710.64	1.494
710.83	1.499
711.02	1.508
711.20	1.506
711.39	1.498
711.57	1.471
711.76	1.471
711.94	1.464
712.13	1.473
712.31	1.470
712.50	1.443
712.68	1.436
712.87	1.444
713.05	1.445
713.24	1.446
713.42	1.441
713.61	1.443
713.79	1.455
713.98	1.454
714.16	1.465
714.35	1.463
714.54	1.469
714.72	1.473
714.91	1.460
715.09	1.512
715.28	1.529
715.46	1.529
715.65	1.520
715.83	1.515
716.02	1.533
716.20	1.502
716.39	1.509
716.57	1.520
716.76	1.530
716.94	1.534
717.12	1.474
717.31	1.483
717.49	1.503
717.68	1.518
717.86	1.516
718.05	1.526
718.23	1.541
718.42	1.550
718.60	1.560
718.79	1.646
718.97	1.665
719.16	1.663
719.34	1.651
719.53	1.650
719.71	1.650
719.90	1.659
720.08	1.633
720.27	1.636
720.45	1.634
720.63	1.618
720.82	1.548
721.00	1.567
721.19	1.587
721.37	1.573
721.56	1.573
721.74	1.584
721.93	1.659
722.11	1.721
722.30	1.718
722.48	1.762
722.66	1.753
722.85	1.735
723.03	1.743
723.22	1.740
723.40	1.781
723.59	1.772
723.77	1.839
723.95	1.744
724.14	1.770
724.32	1.782
724.51	1.777
724.69	1.814
724.88	1.812
725.06	1.780
725.24	1.776
725.43	1.788
725.61	1.836
725.80	1.754
725.98	1.755
726.16	1.697
726.35	1.759
726.53	1.742
726.72	1.731
726.90	1.876
727.09	1.881
727.27	1.993
727.45	1.945
727.64	2.097
727.82	2.274
728.01	2.357
728.19	2.323
728.37	2.582
728.56	2.873
728.74	-0.000
728.92	2.405
729.11	2.557
729.29	2.342
729.48	2.413
729.66	2.113
729.84	2.088
730.03	2.124
730.21	2.144
730.40	1.933
730.58	1.931
730.76	1.881
730.95	1.894
731.13	1.869
731.31	2.099
731.50	2.217
731.68	2.262
731.86	2.176
732.05	3.298
732.23	4.220
732.42	-0.000
732.60	-0.000
732.78	-0.000
732.97	-0.000
733.15	-0.000
733.33	-0.000
733.52	-0.000
733.70	-0.000
733.88	-0.000
734.07	-0.000
734.25	-0.000
734.43	-0.000
734.62	-0.000
734.80	-0.000
734.98	-0.000
735.17	-0.000
735.35	-0.000
735.53	-0.000
735.72	-0.000
735.90	-0.000
736.08	-0.000
736.27	-0.000
736.45	-0.000
736.63	-0.000
736.82	-0.000
737.00	-0.000
737.18	-0.000
737.37	-0.000
737.55	-0.000
737.73	-0.000
737.92	-0.000
738.10	-0.000
738.28	-0.000
738.46	-0.000
738.65	-0.000
738.83	-0.000
739.01	-0.000
739.20	-0.000
739.38	-0.000
739.56	-0.000
739.75	-0.000
739.93	-0.000
740.11	-0.000
740.29	-0.000
740.48	-0.000
740.66	-0.000
740.84	-0.000
741.03	-0.000
741.21	-0.000
741.39	-0.000
741.57	-0.000
741.76	-0.000
741.94	-0.000
742.12	-0.000
742.31	-0.000
742.49	-0.000
742.67	-0.000
742.85	-0.000
743.04	-0.000
743.22	-0.000
743.40	-0.000
743.58	-0.000
743.77	-0.000
743.95	-0.000
744.13	-0.000
744.31	-0.000
744.50	-0.000
744.68	-0.000
744.86	-0.000
745.04	-0.000
745.23	-0.000
745.41	-0.000
745.59	-0.000
745.77	-0.000
745.96	-0.000
746.14	-0.000
746.32	-0.000
746.50	-0.000
746.69	-0.000
746.87	-0.000
747.05	-0.000
747.23	-0.000
747.42	-0.000
747.60	-0.000
747.78	-0.000
747.96	-0.000
748.14	-0.000
748.33	-0.000
748.51	-0.000
748.69	-0.000
748.87	-0.000
749.06	-0.000
749.24	-0.000
749.42	-0.000
749.60	-0.000
749.78	-0.000
749.97	-0.000
750.15	-0.000
750.33	-0.000
750.51	-0.000
750.69	-0.000
750.88	-0.000
751.06	-0.000
751.24	-0.000
751.42	-0.000
751.60	-0.000
751.79	-0.000
751.97	-0.000
752.15	-0.000
752.33	-0.000
752.51	-0.000
752.69	-0.000
752.88	-0.000
753.06	-0.000
753.24	-0.000
753.42	-0.000
753.60	-0.000
753.78	-0.000
753.97	-0.000
754.15	-0.000
754.33	-0.000
754.51	-0.000
754.69	-0.000
754.87	-0.000
755.06	-0.000
755.24	-0.000
755.42	-0.000
755.60	-0.000
755.78	-0.000
755.96	-0.000
756.15	-0.000
756.33	-0.000
756.51	-0.000
756.69	-0.000
756.87	-0.000
757.05	-0.000
757.23	-0.000
757.42	-0.000
757.60	-0.000
757.78	-0.000
757.96	-0.000
758.14	-0.000
758.32	-0.000
758.50	-0.000
758.69	-0.000
758.87	-0.000
759.05	-0.000
759.23	-0.000
759.41	-0.000
759.59	-0.000
759.77	-0.000
759.95	-0.000
760.13	-0.000
760.32	-0.000
760.50	-0.000
760.68	-0.000
760.86	-0.000
761.04	-0.000
761.22	-0.000
761.40	-0.000
761.58	-0.000
761.76	-0.000
761.95	-0.000
762.13	-0.000
762.31	-0.000
762.49	-0.000
762.67	-0.000
762.85	-0.000
763.03	-0.000
763.21	-0.000
763.39	-0.000
763.57	-0.000
763.75	-0.000
763.94	-0.000
764.12	-0.000
764.30	-0.000
764.48	-0.000
764.66	-0.000
764.84	-0.000
765.02	-0.000
765.20	-0.000
765.38	-0.000
765.56	-0.000
765.74	-0.000
765.92	-0.000
766.10	-0.000
766.28	-0.000
766.46	-0.000
766.65	-0.000
766.83	-0.000
767.01	-0.000
767.19	-0.000
767.37	-0.000
767.55	-0.000
767.73	-0.000
767.91	-0.000
768.09	-0.000
768.27	-0.000
768.45	-0.000
768.63	-0.000
768.81	-0.000
768.99	-0.000
769.17	-0.000
769.35	-0.000
769.53	-0.000
769.71	-0.000
769.89	-0.000
770.07	-0.000
770.25	-0.000
770.43	-0.000
770.61	-0.000
770.79	-0.000
770.97	-0.000
771.15	-0.000
771.33	-0.000
771.51	-0.000
771.69	-0.000
771.87	-0.000
772.05	-0.000
772.24	-0.000
772.42	-0.000
772.60	-0.000
772.78	-0.000
772.96	-0.000
773.14	-0.000
773.32	-0.000
773.49	-0.000
773.67	-0.000
773.85	-0.000
774.03	-0.000
774.21	-0.000
774.39	-0.000
774.57	-0.000
774.75	-0.000
774.93	-0.000
775.11	-0.000
775.29	-0.000
775.47	-0.000
775.65	-0.000
775.83	-0.000
776.01	-0.000
776.19	-0.000
776.37	-0.000
776.55	-0.000
776.73	-0.000
776.91	-0.000
777.09	-0.000
777.27	-0.000
777.45	-0.000
777.63	-0.000
777.81	-0.000
777.99	-0.000
778.17	-0.000
778.35	-0.000
778.53	-0.000
778.71	-0.000
778.89	-0.000
779.07	-0.000
779.24	-0.000
779.42	-0.000
779.60	-0.000
779.78	-0.000
779.96	-0.000
780.14	-0.000
780.32	-0.000
780.50	-0.000
780.68	-0.000
780.86	-0.000
781.04	-0.000
781.22	-0.000
781.40	-0.000
781.58	-0.000
781.75	-0.000
781.93	-0.000
782.11	-0.000
782.29	-0.000
782.47	-0.000
782.65	-0.000
782.83	-0.000
783.01	-0.000
783.19	-0.000
783.37	-0.000
783.55	-0.000
783.72	-0.000
783.90	-0.000
784.08	-0.000
784.26	-0.000
784.44	-0.000
784.62	-0.000
784.80	-0.000
784.98	-0.000
785.16	-0.000
785.33	-0.000
785.51	-0.000
785.69	-0.000
785.87	-0.000
786.05	-0.000
786.23	-0.000
786.41	-0.000
786.59	-0.000
786.77	-0.000
786.94	-0.000
787.12	-0.000
787.30	-0.000
787.48	-0.000
787.66	-0.000
787.84	-0.000
788.02	-0.000
788.19	-0.000
788.37	-0.000
788.55	-0.000
788.73	-0.000
788.91	-0.000
789.09	-0.000
789.27	-0.000
789.44	-0.000
789.62	-0.000
789.80	-0.000
789.98	-0.000
790.16	-0.000
790.34	-0.000
790.51	-0.000
790.69	-0.000
790.87	-0.000
791.05	-0.000
791.23	-0.000
791.41	-0.000
791.58	-0.000
791.76	-0.000
791.94	-0.000
792.12	-0.000
792.30	-0.000
792.48	-0.000
792.65	-0.000
792.83	-0.000
793.01	-0.000
793.19	-0.000
793.37	-0.000
793.54	-0.000
793.72	-0.000
793.90	-0.000
794.08	-0.000
794.26	-0.000
794.43	-0.000
794.61	-0.000
794.79	-0.000
794.97	-0.000
795.15	-0.000
795.32	-0.000
795.50	-0.000
795.68	-0.000
795.86	-0.000
796.04	-0.000
796.21	-0.000
796.39	-0.000
796.57	-0.000
796.75	-0.000
796.92	-0.000
797.10	-0.000
797.28	-0.000
797.46	-0.000
797.64	-0.000
797.81	-0.000
797.99	-0.000
798.17	-0.000
798.35	-0.000
798.52	-0.000
798.70	-0.000
798.88	-0.000
799.06	-0.000
799.23	-0.000
799.41	-0.000
799.59	-0.000
799.77	-0.000
799.94	-0.000
800.12	-0.000
800.30	-0.000
800.48	-0.000
800.65	-0.000
800.83	-0.000
801.01	-0.000
801.19	-0.000
801.36	-0.000
801.54	-0.000
801.72	-0.000
801.90	-0.000
802.07	-0.000
802.25	-0.000
802.43	-0.000
802.60	-0.000
802.78	-0.000
802.96	-0.000
803.14	-0.000
803.31	-0.000
803.49	-0.000
803.67	-0.000
803.84	-0.000
804.02	-0.000
804.20	-0.000
804.38	-0.000
804.55	-0.000
804.73	-0.000
804.91	-0.000
805.08	-0.000
805.26	-0.000
805.44	-0.000
805.61	-0.000
805.79	-0.000
805.97	-0.000
806.15	-0.000
806.32	-0.000
806.50	-0.000
806.68	-0.000
806.85	-0.000
807.03	-0.000
807.21	-0.000
807.38	-0.000
807.56	-0.000
807.74	-0.000
807.91	-0.000
808.09	-0.000
808.27	-0.000
808.44	-0.000
808.62	-0.000
808.80	-0.000
808.97	-0.000
809.15	-0.000
809.33	-0.000
809.50	-0.000
809.68	-0.000
809.86	-0.000
810.03	-0.000
810.21	-0.000
810.39	-0.000
810.56	-0.000
810.74	-0.000
810.91	-0.000
811.09	-0.000
811.27	-0.000
811.44	-0.000
811.62	-0.000
811.80	-0.000
811.97	-0.000
812.15	-0.000
812.33	-0.000
812.50	-0.000
812.68	-0.000
812.85	-0.000
813.03	-0.000
813.21	-0.000
813.38	-0.000
813.56	-0.000
813.74	-0.000
813.91	-0.000
814.09	-0.000
814.26	-0.000
814.44	-0.000
814.62	-0.000
814.79	-0.000
814.97	-0.000
815.14	-0.000
815.32	-0.000
815.50	-0.000
815.67	-0.000
815.85	-0.000
816.02	-0.000
816.20	-0.000
816.38	-0.000
816.55	-0.000
816.73	-0.000
816.90	-0.000
817.08	-0.000
817.26	-0.000
817.43	-0.000
817.61	-0.000
817.78	-0.000
817.96	-0.000
818.13	-0.000
818.31	-0.000
818.49	-0.000
818.66	-0.000
818.84	-0.000
819.01	-0.000
819.19	-0.000
819.36	-0.000
819.54	-0.000
819.71	-0.000
819.89	-0.000
820.07	-0.000
820.24	-0.000
820.42	-0.000
820.59	-0.000
820.77	-0.000
820.94	-0.000
821.12	-0.000
821.29	-0.000
821.47	-0.000
821.64	-0.000
821.82	-0.000
822.00	-0.000
822.17	-0.000
822.35	-0.000
822.52	-0.000
822.70	-0.000
822.87	-0.000
823.05	-0.000
823.22	-0.000
823.40	-0.000
823.57	-0.000
823.75	-0.000
823.92	-0.000
824.10	-0.000
824.27	-0.000
824.45	-0.000
824.62	-0.000
824.80	-0.000
824.97	-0.000
825.15	-0.000
825.32	-0.000
825.50	-0.000
825.67	-0.000
825.85	-0.000
826.02	-0.000
826.20	-0.000
826.37	-0.000
826.55	-0.000
826.72	-0.000
826.90	-0.000
827.07	-0.000
827.25	-0.000
827.42	-0.000
827.60	-0.000
827.77	-0.000
827.95	-0.000
828.12	-0.000
828.30	-0.000
828.47	-0.000
828.65	-0.000
828.82	-0.000
829.00	-0.000
829.17	-0.000
829.34	-0.000
829.52	-0.000
829.69	-0.000
829.87	-0.000
830.04	-0.000
830.22	-0.000
830.39	-0.000
830.57	-0.000
830.74	-0.000
830.92	-0.000
831.09	-0.000
831.26	-0.000
831.44	-0.000
831.61	-0.000
831.79	-0.000
831.96	-0.000
832.14	-0.000
832.31	-0.000
832.49	-0.000
832.66	-0.000
832.83	-0.000
833.01	-0.000
833.18	-0.000
833.36	-0.000
833.53	-0.000
833.70	-0.000
833.88	-0.000
834.05	-0.000
834.23	-0.000
834.40	-0.000
834.58	-0.000
834.75	-0.000
834.92	-0.000
835.10	-0.000
835.27	-0.000
835.45	-0.000
835.62	-0.000
835.79	-0.000
835.97	-0.000
836.14	-0.000
836.32	-0.000
836.49	-0.000
836.66	-0.000
836.84	-0.000
837.01	-0.000
837.18	-0.000
837.36	-0.000
837.53	-0.000
837.71	-0.000
837.88	-0.000
838.05	-0.000
838.23	-0.000
838.40	-0.000
838.58	-0.000
838.75	-0.000
838.92	-0.000
839.10	-0.000
839.27	-0.000
839.44	-0.000
839.62	-0.000
839.79	-0.000
839.96	-0.000
840.14	-0.000
840.31	-0.000
840.48	-0.000
840.66	-0.000
840.83	-0.000
841.01	-0.000
841.18	-0.000
841.35	-0.000
841.53	-0.000
841.70	-0.000
841.87	-0.000
842.05	-0.000
842.22	-0.000
842.39	-0.000
842.57	-0.000
842.74	-0.000
842.91	-0.000
843.09	-0.000
843.26	-0.000
843.43	-0.000
843.60	-0.000
843.78	-0.000
843.95	-0.000
844.12	-0.000
844.30	-0.000
844.47	-0.000
844.64	-0.000
844.82	-0.000
844.99	-0.000
845.16	-0.000
845.34	-0.000
845.51	-0.000
845.68	-0.000
845.85	-0.000
846.03	-0.000
846.20	-0.000
846.37	-0.000
846.55	-0.000
846.72	-0.000
846.89	-0.000
847.06	-0.000
847.24	-0.000
847.41	-0.000
847.58	-0.000
847.76	-0.000
847.93	-0.000
848.10	-0.000
848.27	-0.000
848.45	-0.000
848.62	-0.000
848.79	-0.000
848.97	-0.000
849.14	-0.000
849.31	-0.000
849.48	-0.000
849.66	-0.000
849.83	-0.000
850.00	-0.000
850.17	-0.000
850.35	-0.000
850.52	-0.000
850.69	-0.000
850.86	-0.000
851.04	-0.000
851.21	-0.000
851.38	-0.000
851.55	-0.000
851.72	-0.000
851.90	-0.000
852.07	-0.000
852.24	-0.000
852.41	-0.000
852.59	-0.000
852.76	-0.000
852.93	-0.000
853.10	-0.000
853.28	-0.000
853.45	-0.000
853.62	-0.000
853.79	-0.000
853.96	-0.000
854.14	-0.000
854.31	-0.000
854.48	-0.000
854.65	-0.000
854.82	-0.000
855.00	-0.000
855.17	-0.000
855.34	-0.000
855.51	-0.000
855.68	-0.000
855.86	-0.000
856.03	-0.000
856.20	-0.000
856.37	-0.000
856.54	-0.000
856.72	-0.000
856.89	-0.000
857.06	-0.000
857.23	-0.000
857.40	-0.000
857.57	-0.000
857.75	-0.000
857.92	-0.000
858.09	-0.000
858.26	-0.000
858.43	-0.000
858.60	-0.000
858.78	-0.000
858.95	-0.000
859.12	-0.000
859.29	-0.000
859.46	-0.000
859.63	-0.000
859.81	-0.000
859.98	-0.000
860.15	-0.000
860.32	-0.000
860.49	-0.000
860.66	-0.000
860.83	-0.000
861.01	-0.000
861.18	-0.000
861.35	-0.000
861.52	-0.000
861.69	-0.000
861.86	-0.000
862.03	-0.000
862.21	-0.000
862.38	-0.000
862.55	-0.000
862.72	-0.000
862.89	-0.000
863.06	-0.000
863.23	-0.000
863.40	-0.000
863.58	-0.000
863.75	-0.000
863.92	-0.000
864.09	-0.000
864.26	-0.000
864.43	-0.000
864.60	-0.000
864.77	-0.000
864.94	-0.000
865.11	-0.000
865.29	-0.000
865.46	-0.000
865.63	-0.000
865.80	-0.000
865.97	-0.000
866.14	-0.000
866.31	-0.000
866.48	-0.000
866.65	-0.000
866.82	-0.000
866.99	-0.000
867.16	-0.000
867.34	-0.000
867.51	-0.000
867.68	-0.000
867.85	-0.000
868.02	-0.000
868.19	-0.000
868.36	-0.000
868.53	-0.000
868.70	-0.000
868.87	-0.000
869.04	-0.000
869.21	-0.000
869.38	-0.000
869.55	-0.000
869.72	-0.000
869.89	-0.000
870.06	-0.000
870.24	-0.000
870.41	-0.000
870.58	-0.000
870.75	-0.000
870.92	-0.000
871.09	-0.000
871.26	-0.000
871.43	-0.000
871.60	-0.000
871.77	-0.000
871.94	-0.000
872.11	-0.000
872.28	-0.000
872.45	-0.000
872.62	-0.000
872.79	-0.000
872.96	-0.000
873.13	-0.000
873.30	-0.000
873.47	-0.000
873.64	-0.000
873.81	-0.000
873.98	-0.000
874.15	-0.000
874.32	-0.000
874.49	-0.000
874.66	-0.000
874.83	-0.000
875.00	-0.000
875.17	-0.000
875.34	-0.000
875.51	-0.000
875.68	-0.000
875.85	-0.000
876.02	-0.000
876.19	-0.000
876.36	-0.000
876.53	-0.000
876.70	-0.000
876.87	-0.000
877.04	-0.000
877.21	-0.000
877.38	-0.000
877.55	-0.000
877.72	-0.000
877.89	-0.000
878.06	-0.000
878.23	-0.000
878.39	-0.000
878.56	-0.000
878.73	-0.000
878.90	-0.000
879.07	-0.000
879.24	-0.000
879.41	-0.000
879.58	-0.000
879.75	-0.000
879.92	-0.000
880.09	-0.000
880.26	-0.000
880.43	-0.000
880.60	-0.000
880.77	-0.000
880.94	-0.000
881.11	-0.000
881.27	-0.000
881.44	-0.000
881.61	-0.000
881.78	-0.000
881.95	-0.000
882.12	-0.000
882.29	-0.000
882.46	-0.000
882.63	-0.000
882.80	-0.000
882.97	-0.000
883.14	-0.000
883.30	-0.000
883.47	-0.000
883.64	-0.000
883.81	-0.000
883.98	-0.000
884.15	-0.000
884.32	-0.000
884.49	-0.000
884.66	-0.000
884.82	-0.000
884.99	-0.000
885.16	-0.000
885.33	-0.000
885.50	-0.000
885.67	-0.000
885.84	-0.000
886.01	-0.000
886.17	-0.000
886.34	-0.000
886.51	-0.000
886.68	-0.000
886.85	-0.000
887.02	-0.000
887.19	-0.000
887.36	-0.000
887.52	-0.000
887.69	-0.000
887.86	-0.000
888.03	-0.000
888.20	-0.000
888.37	-0.000
888.54	-0.000
888.70	-0.000
888.87	-0.000
889.04	-0.000
889.21	-0.000
889.38	-0.000
889.55	-0.000
889.71	-0.000
889.88	-0.000
890.05	-0.000
890.22	-0.000
890.39	-0.000
>>>>>End Processed Spectral Data<<<<<
