SpectraSuite Data File
++++++++++++++++++++++++++++++++++++
Date: Fri Jun 19 16:59:38 CEST 2015
User: introlabs
Dark Spectrum Present: Yes
Reference Spectrum Present: Yes
Number of Sampled Component Spectra: 1
Spectrometers: USB4H08886
Integration Time (usec): 745692 (USB4H08886)
Spectra Averaged: 5 (USB4H08886)
Boxcar Smoothing: 5 (USB4H08886)
Correct for Electrical Dark: Yes (USB4H08886)
Strobe/Lamp Enabled: No (USB4H08886)
Correct for Detector Non-linearity: Yes (USB4H08886)
Correct for Stray Light: Yes (USB4H08886)
Number of Pixels in Processed Spectrum: 3648
>>>>>Begin Processed Spectral Data<<<<<
178.14	-0.000
178.36	-0.000
178.57	-0.000
178.79	-0.000
179.01	-0.000
179.22	-0.000
179.44	-0.000
179.65	-0.000
179.87	-0.000
180.08	-0.000
180.30	-0.000
180.52	-0.000
180.73	-0.000
180.95	-0.000
181.16	-0.000
181.38	-0.000
181.59	-0.000
181.81	-0.000
182.03	-0.000
182.24	-0.000
182.46	-0.000
182.67	-0.000
182.89	-0.000
183.10	-0.000
183.32	-0.000
183.54	-0.000
183.75	-0.000
183.97	-0.000
184.18	-0.000
184.40	-0.000
184.61	-0.000
184.83	-0.000
185.04	-0.000
185.26	-0.000
185.48	-0.000
185.69	-0.000
185.91	-0.000
186.12	-0.000
186.34	-0.000
186.55	-0.000
186.77	-0.000
186.98	-0.000
187.20	-0.000
187.42	-0.000
187.63	-0.000
187.85	-0.000
188.06	-0.000
188.28	-0.000
188.49	-0.000
188.71	-0.000
188.92	-0.000
189.14	-0.000
189.36	-0.000
189.57	-0.000
189.79	-0.000
190.00	-0.000
190.22	-0.000
190.43	-0.000
190.65	-0.000
190.86	-0.000
191.08	-0.000
191.29	-0.000
191.51	-0.000
191.72	-0.000
191.94	-0.000
192.16	-0.000
192.37	-0.000
192.59	-0.000
192.80	-0.000
193.02	-0.000
193.23	-0.000
193.45	-0.000
193.66	-0.000
193.88	-0.000
194.09	-0.000
194.31	-0.000
194.52	-0.000
194.74	-0.000
194.95	-0.000
195.17	-0.000
195.38	-0.000
195.60	-0.000
195.81	-0.000
196.03	-0.000
196.25	-0.000
196.46	-0.000
196.68	-0.000
196.89	-0.000
197.11	-0.000
197.32	-0.000
197.54	-0.000
197.75	-0.000
197.97	-0.000
198.18	-0.000
198.40	-0.000
198.61	-0.000
198.83	-0.000
199.04	-0.000
199.26	-0.000
199.47	-0.000
199.69	-0.000
199.90	-0.000
200.12	-0.000
200.33	-0.000
200.55	-0.000
200.76	-0.000
200.98	-0.000
201.19	-0.000
201.41	-0.000
201.62	-0.000
201.84	-0.000
202.05	-0.000
202.27	-0.000
202.48	-0.000
202.70	-0.000
202.91	-0.000
203.13	-0.000
203.34	-0.000
203.56	-0.000
203.77	-0.000
203.99	-0.000
204.20	-0.000
204.42	-0.000
204.63	-0.000
204.85	-0.000
205.06	-0.000
205.28	-0.000
205.49	-0.000
205.71	-0.000
205.92	-0.000
206.14	-0.000
206.35	-0.000
206.56	-0.000
206.78	-0.000
206.99	-0.000
207.21	-0.000
207.42	-0.000
207.64	-0.000
207.85	-0.000
208.07	-0.000
208.28	-0.000
208.50	-0.000
208.71	-0.000
208.93	-0.000
209.14	-0.000
209.36	-0.000
209.57	-0.000
209.79	-0.000
210.00	-0.000
210.22	-0.000
210.43	-0.000
210.64	-0.000
210.86	-0.000
211.07	-0.000
211.29	-0.000
211.50	-0.000
211.72	-0.000
211.93	-0.000
212.15	-0.000
212.36	-0.000
212.58	-0.000
212.79	-0.000
213.01	-0.000
213.22	-0.000
213.43	-0.000
213.65	-0.000
213.86	-0.000
214.08	-0.000
214.29	-0.000
214.51	-0.000
214.72	-0.000
214.94	-0.000
215.15	-0.000
215.36	-0.000
215.58	-0.000
215.79	-0.000
216.01	-0.000
216.22	-0.000
216.44	-0.000
216.65	-0.000
216.87	-0.000
217.08	-0.000
217.29	-0.000
217.51	-0.000
217.72	-0.000
217.94	-0.000
218.15	-0.000
218.37	-0.000
218.58	-0.000
218.80	-0.000
219.01	-0.000
219.22	-0.000
219.44	-0.000
219.65	-0.000
219.87	-0.000
220.08	-0.000
220.30	-0.000
220.51	-0.000
220.72	-0.000
220.94	-0.000
221.15	-0.000
221.37	-0.000
221.58	-0.000
221.79	-0.000
222.01	-0.000
222.22	-0.000
222.44	-0.000
222.65	-0.000
222.87	-0.000
223.08	-0.000
223.29	-0.000
223.51	-0.000
223.72	-0.000
223.94	-0.000
224.15	-0.000
224.36	-0.000
224.58	-0.000
224.79	-0.000
225.01	-0.000
225.22	-0.000
225.44	-0.000
225.65	-0.000
225.86	-0.000
226.08	-0.000
226.29	-0.000
226.51	-0.000
226.72	-0.000
226.93	-0.000
227.15	-0.000
227.36	-0.000
227.58	-0.000
227.79	-0.000
228.00	-0.000
228.22	-0.000
228.43	-0.000
228.65	-0.000
228.86	-0.000
229.07	-0.000
229.29	-0.000
229.50	-0.000
229.72	-0.000
229.93	-0.000
230.14	-0.000
230.36	-0.000
230.57	-0.000
230.78	-0.000
231.00	-0.000
231.21	-0.000
231.43	-0.000
231.64	-0.000
231.85	-0.000
232.07	-0.000
232.28	-0.000
232.50	-0.000
232.71	-0.000
232.92	-0.000
233.14	-0.000
233.35	-0.000
233.56	-0.000
233.78	-0.000
233.99	-0.000
234.21	-0.000
234.42	-0.000
234.63	-0.000
234.85	-0.000
235.06	-0.000
235.27	-0.000
235.49	-0.000
235.70	-0.000
235.91	-0.000
236.13	-0.000
236.34	-0.000
236.56	-0.000
236.77	-0.000
236.98	-0.000
237.20	-0.000
237.41	-0.000
237.62	-0.000
237.84	-0.000
238.05	-0.000
238.26	-0.000
238.48	-0.000
238.69	-0.000
238.91	-0.000
239.12	-0.000
239.33	-0.000
239.55	-0.000
239.76	-0.000
239.97	-0.000
240.19	-0.000
240.40	-0.000
240.61	-0.000
240.83	-0.000
241.04	-0.000
241.25	-0.000
241.47	-0.000
241.68	-0.000
241.89	-0.000
242.11	-0.000
242.32	-0.000
242.53	-0.000
242.75	-0.000
242.96	-0.000
243.17	-0.000
243.39	-0.000
243.60	-0.000
243.81	-0.000
244.03	-0.000
244.24	-0.000
244.45	-0.000
244.67	-0.000
244.88	-0.000
245.09	-0.000
245.31	-0.000
245.52	-0.000
245.73	-0.000
245.95	-0.000
246.16	-0.000
246.37	-0.000
246.59	-0.000
246.80	-0.000
247.01	-0.000
247.23	-0.000
247.44	-0.000
247.65	-0.000
247.87	-0.000
248.08	-0.000
248.29	-0.000
248.51	-0.000
248.72	-0.000
248.93	-0.000
249.15	-0.000
249.36	-0.000
249.57	-0.000
249.78	-0.000
250.00	-0.000
250.21	-0.000
250.42	-0.000
250.64	-0.000
250.85	-0.000
251.06	-0.000
251.28	-0.000
251.49	-0.000
251.70	-0.000
251.92	-0.000
252.13	-0.000
252.34	-0.000
252.55	-0.000
252.77	-0.000
252.98	-0.000
253.19	-0.000
253.41	-0.000
253.62	-0.000
253.83	-0.000
254.05	-0.000
254.26	-0.000
254.47	-0.000
254.68	-0.000
254.90	-0.000
255.11	-0.000
255.32	-0.000
255.54	-0.000
255.75	-0.000
255.96	-0.000
256.17	-0.000
256.39	-0.000
256.60	-0.000
256.81	-0.000
257.03	-0.000
257.24	-0.000
257.45	-0.000
257.66	-0.000
257.88	-0.000
258.09	-0.000
258.30	-0.000
258.51	-0.000
258.73	-0.000
258.94	-0.000
259.15	-0.000
259.37	-0.000
259.58	-0.000
259.79	-0.000
260.00	-0.000
260.22	-0.000
260.43	-0.000
260.64	-0.000
260.85	-0.000
261.07	-0.000
261.28	-0.000
261.49	-0.000
261.71	-0.000
261.92	-0.000
262.13	-0.000
262.34	-0.000
262.56	-0.000
262.77	-0.000
262.98	-0.000
263.19	-0.000
263.41	-0.000
263.62	-0.000
263.83	-0.000
264.04	-0.000
264.26	-0.000
264.47	-0.000
264.68	-0.000
264.89	-0.000
265.11	-0.000
265.32	-0.000
265.53	-0.000
265.74	-0.000
265.96	-0.000
266.17	-0.000
266.38	-0.000
266.59	-0.000
266.81	-0.000
267.02	-0.000
267.23	-0.000
267.44	-0.000
267.65	-0.000
267.87	-0.000
268.08	-0.000
268.29	-0.000
268.50	-0.000
268.72	-0.000
268.93	-0.000
269.14	-0.000
269.35	-0.000
269.57	-0.000
269.78	-0.000
269.99	-0.000
270.20	-0.000
270.41	-0.000
270.63	-0.000
270.84	-0.000
271.05	-0.000
271.26	-0.000
271.48	-0.000
271.69	-0.000
271.90	-0.000
272.11	-0.000
272.32	-0.000
272.54	-0.000
272.75	-0.000
272.96	-0.000
273.17	-0.000
273.39	-0.000
273.60	-0.000
273.81	-0.000
274.02	-0.000
274.23	-0.000
274.45	-0.000
274.66	-0.000
274.87	-0.000
275.08	-0.000
275.29	-0.000
275.51	-0.000
275.72	-0.000
275.93	-0.000
276.14	-0.000
276.35	-0.000
276.57	-0.000
276.78	-0.000
276.99	-0.000
277.20	-0.000
277.41	-0.000
277.63	-0.000
277.84	-0.000
278.05	-0.000
278.26	-0.000
278.47	-0.000
278.69	-0.000
278.90	-0.000
279.11	-0.000
279.32	-0.000
279.53	-0.000
279.74	-0.000
279.96	-0.000
280.17	-0.000
280.38	-0.000
280.59	-0.000
280.80	-0.000
281.02	-0.000
281.23	-0.000
281.44	-0.000
281.65	-0.000
281.86	-0.000
282.07	-0.000
282.29	-0.000
282.50	-0.000
282.71	-0.000
282.92	-0.000
283.13	-0.000
283.35	-0.000
283.56	-0.000
283.77	-0.000
283.98	-0.000
284.19	-0.000
284.40	-0.000
284.62	-0.000
284.83	-0.000
285.04	-0.000
285.25	-0.000
285.46	-0.000
285.67	-0.000
285.88	-0.000
286.10	-0.000
286.31	-0.000
286.52	-0.000
286.73	-0.000
286.94	-0.000
287.15	-0.000
287.37	-0.000
287.58	-0.000
287.79	-0.000
288.00	-0.000
288.21	-0.000
288.42	-0.000
288.63	-0.000
288.85	-0.000
289.06	-0.000
289.27	-0.000
289.48	-0.000
289.69	-0.000
289.90	-0.000
290.11	-0.000
290.33	-0.000
290.54	-0.000
290.75	-0.000
290.96	-0.000
291.17	-0.000
291.38	-0.000
291.59	-0.000
291.81	-0.000
292.02	-0.000
292.23	-0.000
292.44	-0.000
292.65	-0.000
292.86	-0.000
293.07	-0.000
293.28	-0.000
293.50	-0.000
293.71	-0.000
293.92	-0.000
294.13	-0.000
294.34	-0.000
294.55	-0.000
294.76	-0.000
294.97	-0.000
295.19	-0.000
295.40	-0.000
295.61	-0.000
295.82	-0.000
296.03	-0.000
296.24	-0.000
296.45	-0.000
296.66	-0.000
296.87	-0.000
297.09	-0.000
297.30	-0.000
297.51	-0.000
297.72	-0.000
297.93	-0.000
298.14	-0.000
298.35	-0.000
298.56	-0.000
298.77	-0.000
298.99	-0.000
299.20	-0.000
299.41	-0.000
299.62	-0.000
299.83	-0.000
300.04	-0.000
300.25	-0.000
300.46	-0.000
300.67	-0.000
300.88	-0.000
301.10	-0.000
301.31	-0.000
301.52	-0.000
301.73	-0.000
301.94	-0.000
302.15	-0.000
302.36	-0.000
302.57	-0.000
302.78	-0.000
302.99	-0.000
303.20	-0.000
303.41	-0.000
303.63	-0.000
303.84	-0.000
304.05	-0.000
304.26	-0.000
304.47	-0.000
304.68	-0.000
304.89	-0.000
305.10	-0.000
305.31	-0.000
305.52	-0.000
305.73	-0.000
305.94	-0.000
306.15	-0.000
306.37	-0.000
306.58	-0.000
306.79	-0.000
307.00	-0.000
307.21	-0.000
307.42	-0.000
307.63	-0.000
307.84	-0.000
308.05	-0.000
308.26	-0.000
308.47	-0.000
308.68	-0.000
308.89	-0.000
309.10	-0.000
309.31	-0.000
309.52	-0.000
309.73	-0.000
309.95	-0.000
310.16	-0.000
310.37	-0.000
310.58	-0.000
310.79	-0.000
311.00	-0.000
311.21	-0.000
311.42	-0.000
311.63	-0.000
311.84	-0.000
312.05	-0.000
312.26	-0.000
312.47	-0.000
312.68	-0.000
312.89	-0.000
313.10	-0.000
313.31	-0.000
313.52	-0.000
313.73	-0.000
313.94	-0.000
314.15	-0.000
314.36	-0.000
314.57	-0.000
314.78	-0.000
314.99	-0.000
315.21	-0.000
315.42	-0.000
315.63	-0.000
315.84	-0.000
316.05	-0.000
316.26	-0.000
316.47	-0.000
316.68	-0.000
316.89	-0.000
317.10	-0.000
317.31	-0.000
317.52	-0.000
317.73	-0.000
317.94	-0.000
318.15	-0.000
318.36	-0.000
318.57	-0.000
318.78	-0.000
318.99	-0.000
319.20	-0.000
319.41	-0.000
319.62	-0.000
319.83	-0.000
320.04	-0.000
320.25	-0.000
320.46	-0.000
320.67	-0.000
320.88	-0.000
321.09	-0.000
321.30	-0.000
321.51	-0.000
321.72	-0.000
321.93	-0.000
322.14	-0.000
322.35	-0.000
322.56	-0.000
322.77	-0.000
322.98	-0.000
323.19	-0.000
323.40	-0.000
323.61	-0.000
323.82	-0.000
324.03	-0.000
324.24	-0.000
324.45	-0.000
324.66	-0.000
324.87	-0.000
325.08	-0.000
325.29	-0.000
325.50	-0.000
325.71	-0.000
325.92	-0.000
326.13	-0.000
326.34	-0.000
326.55	-0.000
326.76	-0.000
326.97	-0.000
327.18	-0.000
327.39	-0.000
327.60	-0.000
327.80	-0.000
328.01	-0.000
328.22	-0.000
328.43	-0.000
328.64	-0.000
328.85	-0.000
329.06	-0.000
329.27	-0.000
329.48	-0.000
329.69	-0.000
329.90	-0.000
330.11	-0.000
330.32	-0.000
330.53	-0.000
330.74	-0.000
330.95	-0.000
331.16	-0.000
331.37	-0.000
331.58	-0.000
331.79	-0.000
332.00	-0.000
332.21	-0.000
332.42	-0.000
332.63	-0.000
332.83	-0.000
333.04	-0.000
333.25	-0.000
333.46	-0.000
333.67	-0.000
333.88	-0.000
334.09	-0.000
334.30	-0.000
334.51	-0.000
334.72	-0.000
334.93	-0.000
335.14	-0.000
335.35	-0.000
335.56	-0.000
335.77	-0.000
335.98	-0.000
336.18	-0.000
336.39	-0.000
336.60	-0.000
336.81	-0.000
337.02	-0.000
337.23	-0.000
337.44	-0.000
337.65	-0.000
337.86	-0.000
338.07	-0.000
338.28	-0.000
338.49	-0.000
338.70	-0.000
338.91	-0.000
339.11	-0.000
339.32	-0.000
339.53	-0.000
339.74	-0.000
339.95	-0.000
340.16	-0.000
340.37	-0.000
340.58	-0.000
340.79	-0.000
341.00	-0.000
341.21	-0.000
341.41	-0.000
341.62	-0.000
341.83	-0.000
342.04	-0.000
342.25	-0.000
342.46	-0.000
342.67	-0.000
342.88	-0.000
343.09	-0.000
343.30	-0.000
343.50	-0.000
343.71	-0.000
343.92	-0.000
344.13	-0.000
344.34	-0.000
344.55	-0.000
344.76	-0.000
344.97	-0.000
345.18	-0.000
345.38	-0.000
345.59	-0.000
345.80	-0.000
346.01	-0.000
346.22	-0.000
346.43	-0.000
346.64	-0.000
346.85	-0.000
347.06	-0.000
347.26	-0.000
347.47	-0.000
347.68	-0.000
347.89	-0.000
348.10	-0.000
348.31	-0.000
348.52	-0.000
348.73	-0.000
348.93	-0.000
349.14	-0.000
349.35	-0.000
349.56	-0.000
349.77	-0.000
349.98	-0.000
350.19	-0.000
350.39	-0.000
350.60	-0.000
350.81	-0.000
351.02	-0.000
351.23	-0.000
351.44	-0.000
351.65	-0.000
351.86	-0.000
352.06	-0.000
352.27	-0.000
352.48	-0.000
352.69	-0.000
352.90	-0.000
353.11	-0.000
353.31	-0.000
353.52	-0.000
353.73	-0.000
353.94	-0.000
354.15	-0.000
354.36	-0.000
354.57	-0.000
354.77	-0.000
354.98	-0.000
355.19	-0.000
355.40	-0.000
355.61	-0.000
355.82	-0.000
356.02	-0.000
356.23	-0.000
356.44	-0.000
356.65	-0.000
356.86	-0.000
357.07	-0.000
357.27	-0.000
357.48	-0.000
357.69	-0.000
357.90	-0.000
358.11	3.418
358.32	-0.000
358.52	-0.000
358.73	3.053
358.94	4.359
359.15	-0.000
359.36	-0.000
359.56	-0.000
359.77	-0.000
359.98	-0.000
360.19	-0.000
360.40	-0.000
360.61	-0.000
360.81	-0.000
361.02	-0.000
361.23	3.463
361.44	2.920
361.65	2.964
361.85	2.890
362.06	2.874
362.27	3.448
362.48	3.329
362.69	3.873
362.89	2.775
363.10	3.143
363.31	-0.000
363.52	-0.000
363.73	-0.000
363.93	-0.000
364.14	-0.000
364.35	-0.000
364.56	2.810
364.77	2.786
364.97	2.862
365.18	2.803
365.39	2.569
365.60	2.462
365.81	2.469
366.01	2.456
366.22	2.349
366.43	2.306
366.64	2.334
366.84	2.561
367.05	2.541
367.26	2.552
367.47	2.680
367.68	2.624
367.88	2.533
368.09	2.400
368.30	2.445
368.51	2.496
368.71	2.526
368.92	2.898
369.13	2.694
369.34	2.696
369.55	2.713
369.75	2.661
369.96	3.590
370.17	3.672
370.38	3.418
370.58	3.405
370.79	-0.000
371.00	-0.000
371.21	2.618
371.41	3.113
371.62	4.631
371.83	2.904
372.04	2.732
372.24	2.411
372.45	2.399
372.66	2.399
372.87	2.363
373.07	2.278
373.28	2.296
373.49	2.411
373.70	2.157
373.90	2.144
374.11	2.332
374.32	2.320
374.53	2.308
374.73	2.349
374.94	2.364
375.15	2.338
375.36	2.271
375.56	2.615
375.77	2.522
375.98	2.509
376.19	2.408
376.39	2.239
376.60	2.295
376.81	2.290
377.02	2.238
377.22	2.232
377.43	2.231
377.64	2.255
377.84	2.062
378.05	2.151
378.26	2.296
378.47	2.291
378.67	2.227
378.88	2.174
379.09	2.166
379.30	2.156
379.50	2.124
379.71	2.162
379.92	2.187
380.12	2.193
380.33	2.063
380.54	2.001
380.75	2.112
380.95	2.120
381.16	2.116
381.37	2.129
381.57	2.161
381.78	2.156
381.99	2.162
382.20	2.147
382.40	2.205
382.61	2.205
382.82	2.154
383.02	2.031
383.23	2.063
383.44	2.060
383.64	2.038
383.85	2.078
384.06	2.125
384.27	2.079
384.47	2.075
384.68	2.057
384.89	2.154
385.09	2.151
385.30	2.145
385.51	2.125
385.71	2.163
385.92	2.166
386.13	2.146
386.33	2.222
386.54	2.219
386.75	2.184
386.95	2.129
387.16	2.039
387.37	2.065
387.58	2.055
387.78	2.036
387.99	2.000
388.20	2.022
388.40	1.978
388.61	1.915
388.82	1.972
389.02	1.985
389.23	1.980
389.44	1.968
389.64	1.974
389.85	2.193
390.06	2.179
390.26	2.216
390.47	2.198
390.68	2.239
390.88	2.214
391.09	2.113
391.30	2.119
391.50	2.110
391.71	2.102
391.92	2.052
392.12	1.914
392.33	1.911
392.53	1.903
392.74	1.917
392.95	1.901
393.15	1.917
393.36	1.943
393.57	1.923
393.77	1.961
393.98	1.982
394.19	1.987
394.39	1.991
394.60	2.016
394.81	2.039
395.01	1.998
395.22	1.983
395.43	1.983
395.63	2.048
395.84	2.053
396.04	2.013
396.25	2.030
396.46	2.034
396.66	1.998
396.87	1.960
397.08	1.920
397.28	1.947
397.49	1.961
397.69	1.935
397.90	1.862
398.11	1.866
398.31	1.862
398.52	1.823
398.73	1.852
398.93	1.838
399.14	1.833
399.34	1.830
399.55	1.841
399.76	1.838
399.96	1.841
400.17	1.838
400.37	1.832
400.58	1.910
400.79	1.939
400.99	1.894
401.20	1.968
401.41	1.991
401.61	1.997
401.82	2.116
402.02	2.116
402.23	2.137
402.44	2.125
402.64	2.121
402.85	2.008
403.05	1.979
403.26	1.969
403.47	1.890
403.67	1.876
403.88	1.874
404.08	1.794
404.29	1.782
404.50	1.779
404.70	1.775
404.91	1.769
405.11	1.754
405.32	1.759
405.52	1.761
405.73	1.762
405.94	1.759
406.14	1.787
406.35	1.800
406.55	1.799
406.76	1.780
406.97	1.796
407.17	1.824
407.38	1.826
407.58	1.819
407.79	1.839
407.99	1.861
408.20	1.860
408.41	1.820
408.61	1.802
408.82	1.804
409.02	1.808
409.23	1.793
409.43	1.775
409.64	1.777
409.84	1.776
410.05	1.754
410.26	1.742
410.46	1.736
410.67	1.736
410.87	1.761
411.08	1.777
411.28	1.778
411.49	1.790
411.69	1.771
411.90	1.790
412.11	1.798
412.31	1.804
412.52	1.794
412.72	1.804
412.93	1.807
413.13	1.799
413.34	1.772
413.54	1.792
413.75	1.814
413.95	1.818
414.16	1.789
414.37	1.816
414.57	1.819
414.78	1.847
414.98	1.840
415.19	1.854
415.39	1.812
415.60	1.837
415.80	1.832
416.01	1.805
416.21	1.809
416.42	1.814
416.62	1.772
416.83	1.774
417.03	1.766
417.24	1.762
417.44	1.743
417.65	1.739
417.86	1.740
418.06	1.723
418.27	1.712
418.47	1.733
418.68	1.726
418.88	1.728
419.09	1.718
419.29	1.722
419.50	1.726
419.70	1.727
419.91	1.721
420.11	1.701
420.32	1.715
420.52	1.713
420.73	1.707
420.93	1.721
421.14	1.740
421.34	1.736
421.55	1.718
421.75	1.715
421.96	1.720
422.16	1.723
422.37	1.721
422.57	1.707
422.78	1.718
422.98	1.696
423.19	1.685
423.39	1.668
423.60	1.698
423.80	1.705
424.01	1.699
424.21	1.723
424.42	1.727
424.62	1.730
424.83	1.723
425.03	1.718
425.23	1.729
425.44	1.728
425.64	1.737
425.85	1.721
426.05	1.722
426.26	1.726
426.46	1.691
426.67	1.690
426.87	1.727
427.08	1.726
427.28	1.720
427.49	1.727
427.69	1.726
427.90	1.715
428.10	1.697
428.31	1.699
428.51	1.717
428.71	1.716
428.92	1.728
429.12	1.704
429.33	1.713
429.53	1.750
429.74	1.811
429.94	1.824
430.15	1.817
430.35	1.817
430.56	1.796
430.76	1.778
430.96	1.790
431.17	1.767
431.37	1.752
431.58	1.739
431.78	1.706
431.99	1.644
432.19	1.666
432.40	1.685
432.60	1.691
432.80	1.712
433.01	1.707
433.21	1.707
433.42	1.715
433.62	1.714
433.83	1.719
434.03	1.746
434.23	1.770
434.44	1.751
434.64	1.734
434.85	1.781
435.05	1.795
435.26	1.792
435.46	1.784
435.66	1.789
435.87	1.790
436.07	1.785
436.28	1.749
436.48	1.726
436.69	1.722
436.89	1.724
437.09	1.670
437.30	1.663
437.50	1.666
437.71	1.792
437.91	1.785
438.11	1.796
438.32	1.836
438.52	1.836
438.73	1.831
438.93	1.815
439.13	1.814
439.34	1.860
439.54	1.832
439.75	1.841
439.95	1.720
440.15	1.766
440.36	1.755
440.56	1.736
440.77	1.746
440.97	1.752
441.17	1.741
441.38	1.755
441.58	1.731
441.79	1.730
441.99	1.720
442.19	1.706
442.40	1.673
442.60	1.668
442.81	1.654
443.01	1.648
443.21	1.646
443.42	1.648
443.62	1.634
443.82	1.632
444.03	1.642
444.23	1.643
444.44	1.647
444.64	1.650
444.84	1.670
445.05	1.672
445.25	1.665
445.45	1.668
445.66	1.680
445.86	1.681
446.06	1.697
446.27	1.693
446.47	1.714
446.68	1.701
446.88	1.692
447.08	1.674
447.29	1.683
447.49	1.686
447.69	1.684
447.90	1.677
448.10	1.702
448.30	1.676
448.51	1.693
448.71	1.676
448.91	1.690
449.12	1.685
449.32	1.711
449.52	1.703
449.73	1.731
449.93	1.726
450.14	1.738
450.34	1.728
450.54	1.750
450.75	1.724
450.95	1.717
451.15	1.713
451.36	1.735
451.56	1.709
451.76	1.708
451.97	1.687
452.17	1.689
452.37	1.674
452.58	1.655
452.78	1.650
452.98	1.665
453.19	1.668
453.39	1.679
453.59	1.664
453.79	1.668
454.00	1.671
454.20	1.667
454.40	1.677
454.61	1.696
454.81	1.700
455.01	1.695
455.22	1.711
455.42	1.718
455.62	1.697
455.83	1.694
456.03	1.720
456.23	1.722
456.44	1.726
456.64	1.718
456.84	1.712
457.04	1.718
457.25	1.718
457.45	1.688
457.65	1.682
457.86	1.693
458.06	1.692
458.26	1.661
458.47	1.658
458.67	1.666
458.87	1.668
459.07	1.654
459.28	1.665
459.48	1.677
459.68	1.676
459.89	1.669
460.09	1.657
460.29	1.662
460.49	1.673
460.70	1.670
460.90	1.665
461.10	1.664
461.31	1.665
461.51	1.650
461.71	1.674
461.91	1.678
462.12	1.686
462.32	1.688
462.52	1.691
462.72	1.706
462.93	1.708
463.13	1.700
463.33	1.712
463.53	1.716
463.74	1.714
463.94	1.668
464.14	1.679
464.35	1.685
464.55	1.685
464.75	1.676
464.95	1.662
465.16	1.671
465.36	1.667
465.56	1.661
465.76	1.657
465.97	1.662
466.17	1.668
466.37	1.651
466.57	1.657
466.78	1.663
466.98	1.663
467.18	1.648
467.38	1.641
467.59	1.648
467.79	1.665
467.99	1.659
468.19	1.663
468.39	1.681
468.60	1.680
468.80	1.665
469.00	1.673
469.20	1.680
469.41	1.685
469.61	1.680
469.81	1.682
470.01	1.673
470.22	1.675
470.42	1.668
470.62	1.655
470.82	1.662
471.02	1.662
471.23	1.646
471.43	1.644
471.63	1.664
471.83	1.667
472.04	1.657
472.24	1.649
472.44	1.692
472.64	1.692
472.84	1.681
473.05	1.675
473.25	1.689
473.45	1.686
473.65	1.678
473.85	1.673
474.06	1.674
474.26	1.669
474.46	1.685
474.66	1.651
474.86	1.654
475.07	1.651
475.27	1.647
475.47	1.631
475.67	1.630
475.87	1.646
476.08	1.630
476.28	1.644
476.48	1.658
476.68	1.641
476.88	1.630
477.09	1.633
477.29	1.645
477.49	1.645
477.69	1.646
477.89	1.649
478.09	1.635
478.30	1.649
478.50	1.629
478.70	1.618
478.90	1.616
479.10	1.638
479.31	1.652
479.51	1.639
479.71	1.638
479.91	1.634
480.11	1.626
480.31	1.627
480.52	1.614
480.72	1.613
480.92	1.608
481.12	1.605
481.32	1.586
481.52	1.571
481.72	1.571
481.93	1.595
482.13	1.600
482.33	1.600
482.53	1.591
482.73	1.600
482.93	1.605
483.14	1.604
483.34	1.599
483.54	1.605
483.74	1.594
483.94	1.590
484.14	1.562
484.34	1.562
484.55	1.561
484.75	1.560
484.95	1.548
485.15	1.547
485.35	1.547
485.55	1.546
485.75	1.536
485.96	1.542
486.16	1.550
486.36	1.550
486.56	1.541
486.76	1.546
486.96	1.550
487.16	1.549
487.36	1.542
487.57	1.541
487.77	1.544
487.97	1.548
488.17	1.541
488.37	1.539
488.57	1.539
488.77	1.541
488.97	1.535
489.18	1.530
489.38	1.542
489.58	1.544
489.78	1.544
489.98	1.541
490.18	1.539
490.38	1.539
490.58	1.532
490.78	1.537
490.98	1.540
491.19	1.540
491.39	1.537
491.59	1.530
491.79	1.546
491.99	1.545
492.19	1.546
492.39	1.566
492.59	1.567
492.79	1.579
492.99	1.581
493.20	1.583
493.40	1.583
493.60	1.593
493.80	1.588
494.00	1.570
494.20	1.571
494.40	1.569
494.60	1.554
494.80	1.585
495.00	1.574
495.20	1.567
495.40	1.563
495.61	1.574
495.81	1.570
496.01	1.595
496.21	1.608
496.41	1.608
496.61	1.611
496.81	1.604
497.01	1.570
497.21	1.567
497.41	1.569
497.61	1.568
497.81	1.556
498.01	1.557
498.21	1.537
498.41	1.524
498.61	1.523
498.82	1.529
499.02	1.538
499.22	1.540
499.42	1.538
499.62	1.546
499.82	1.551
500.02	1.557
500.22	1.549
500.42	1.564
500.62	1.565
500.82	1.565
501.02	1.552
501.22	1.554
501.42	1.554
501.62	1.568
501.82	1.563
502.02	1.563
502.22	1.559
502.42	1.575
502.62	1.556
502.82	1.557
503.02	1.564
503.22	1.565
503.42	1.556
503.63	1.557
503.83	1.543
504.03	1.538
504.23	1.533
504.43	1.536
504.63	1.542
504.83	1.541
505.03	1.539
505.23	1.547
505.43	1.558
505.63	1.561
505.83	1.561
506.03	1.569
506.23	1.581
506.43	1.578
506.63	1.575
506.83	1.560
507.03	1.571
507.23	1.572
507.43	1.557
507.63	1.555
507.83	1.555
508.03	1.555
508.23	1.549
508.43	1.539
508.63	1.551
508.83	1.552
509.03	1.563
509.23	1.555
509.43	1.560
509.63	1.562
509.83	1.556
510.03	1.571
510.23	1.577
510.43	1.585
510.63	1.587
510.83	1.582
511.03	1.587
511.23	1.569
511.43	1.567
511.63	1.576
511.83	1.586
512.03	1.584
512.22	1.569
512.42	1.567
512.62	1.572
512.82	1.571
513.02	1.568
513.22	1.566
513.42	1.580
513.62	1.603
513.82	1.590
514.02	1.586
514.22	1.592
514.42	1.592
514.62	1.593
514.82	1.590
515.02	1.603
515.22	1.632
515.42	1.633
515.62	1.645
515.82	1.629
516.02	1.634
516.22	1.641
516.42	1.655
516.62	1.663
516.82	1.668
517.01	1.657
517.21	1.649
517.41	1.674
517.61	1.678
517.81	1.654
518.01	1.652
518.21	1.652
518.41	1.642
518.61	1.634
518.81	1.636
519.01	1.638
519.21	1.640
519.41	1.637
519.61	1.593
519.81	1.607
520.00	1.613
520.20	1.614
520.40	1.631
520.60	1.633
520.80	1.624
521.00	1.629
521.20	1.633
521.40	1.667
521.60	1.667
521.80	1.660
522.00	1.651
522.20	1.658
522.39	1.653
522.59	1.631
522.79	1.639
522.99	1.654
523.19	1.639
523.39	1.634
523.59	1.616
523.79	1.633
523.99	1.651
524.19	1.645
524.38	1.633
524.58	1.642
524.78	1.642
524.98	1.629
525.18	1.645
525.38	1.649
525.58	1.646
525.78	1.632
525.98	1.619
526.18	1.613
526.37	1.607
526.57	1.624
526.77	1.623
526.97	1.623
527.17	1.629
527.37	1.603
527.57	1.620
527.77	1.624
527.96	1.625
528.16	1.620
528.36	1.632
528.56	1.647
528.76	1.631
528.96	1.628
529.16	1.639
529.36	1.651
529.55	1.648
529.75	1.627
529.95	1.627
530.15	1.630
530.35	1.652
530.55	1.629
530.75	1.627
530.94	1.631
531.14	1.634
531.34	1.623
531.54	1.613
531.74	1.631
531.94	1.653
532.13	1.645
532.33	1.662
532.53	1.649
532.73	1.653
532.93	1.642
533.13	1.648
533.33	1.644
533.52	1.647
533.72	1.678
533.92	1.663
534.12	1.650
534.32	1.649
534.52	1.636
534.71	1.644
534.91	1.652
535.11	1.670
535.31	1.658
535.51	1.673
535.71	1.679
535.90	1.648
536.10	1.661
536.30	1.669
536.50	1.677
536.70	1.676
536.89	1.662
537.09	1.662
537.29	1.668
537.49	1.673
537.69	1.657
537.89	1.664
538.08	1.663
538.28	1.647
538.48	1.653
538.68	1.656
538.88	1.669
539.07	1.671
539.27	1.660
539.47	1.651
539.67	1.650
539.87	1.661
540.06	1.645
540.26	1.647
540.46	1.659
540.66	1.639
540.86	1.633
541.05	1.627
541.25	1.635
541.45	1.636
541.65	1.623
541.84	1.634
542.04	1.630
542.24	1.634
542.44	1.629
542.64	1.632
542.83	1.646
543.03	1.647
543.23	1.638
543.43	1.636
543.62	1.643
543.82	1.644
544.02	1.639
544.22	1.638
544.42	1.655
544.61	1.660
544.81	1.649
545.01	1.635
545.21	1.648
545.40	1.644
545.60	1.634
545.80	1.657
546.00	1.658
546.19	1.651
546.39	1.647
546.59	1.634
546.79	1.646
546.98	1.647
547.18	1.648
547.38	1.651
547.58	1.669
547.77	1.675
547.97	1.645
548.17	1.654
548.37	1.656
548.56	1.659
548.76	1.654
548.96	1.654
549.16	1.660
549.35	1.661
549.55	1.644
549.75	1.641
549.95	1.656
550.14	1.658
550.34	1.646
550.54	1.678
550.73	1.700
550.93	1.710
551.13	1.697
551.33	1.690
551.52	1.692
551.72	1.696
551.92	1.679
552.12	1.686
552.31	1.685
552.51	1.688
552.71	1.654
552.90	1.654
553.10	1.650
553.30	1.646
553.50	1.646
553.69	1.651
553.89	1.652
554.09	1.661
554.28	1.636
554.48	1.646
554.68	1.655
554.87	1.655
555.07	1.637
555.27	1.642
555.47	1.650
555.66	1.653
555.86	1.650
556.06	1.663
556.25	1.667
556.45	1.742
556.65	1.736
556.84	1.770
557.04	1.796
557.24	1.805
557.43	1.803
557.63	1.834
557.83	1.841
558.02	1.845
558.22	1.895
558.42	1.897
558.61	1.797
558.81	1.792
559.01	1.748
559.21	1.740
559.40	1.736
559.60	1.738
559.80	1.706
559.99	1.712
560.19	1.718
560.39	1.673
560.58	1.660
560.78	1.666
560.97	1.695
561.17	1.691
561.37	1.682
561.56	1.694
561.76	1.704
561.96	1.705
562.15	1.694
562.35	1.719
562.55	1.723
562.74	1.728
562.94	1.714
563.14	1.692
563.33	1.696
563.53	1.694
563.73	1.681
563.92	1.688
564.12	1.697
564.31	1.710
564.51	1.692
564.71	1.705
564.90	1.709
565.10	1.716
565.30	1.754
565.49	1.757
565.69	1.771
565.89	1.774
566.08	1.753
566.28	1.772
566.47	1.777
566.67	1.754
566.87	1.737
567.06	1.762
567.26	1.823
567.46	1.772
567.65	1.760
567.85	1.769
568.04	1.785
568.24	1.774
568.44	1.748
568.63	1.736
568.83	1.752
569.02	1.739
569.22	1.702
569.42	1.672
569.61	1.685
569.81	1.679
570.00	1.670
570.20	1.679
570.40	1.689
570.59	1.692
570.79	1.677
570.98	1.662
571.18	1.667
571.38	1.665
571.57	1.651
571.77	1.637
571.96	1.660
572.16	1.645
572.35	1.613
572.55	1.623
572.75	1.609
572.94	1.611
573.14	1.605
573.33	1.607
573.53	1.607
573.73	1.600
573.92	1.593
574.12	1.580
574.31	1.595
574.51	1.597
574.70	1.571
574.90	1.578
575.09	1.592
575.29	1.592
575.49	1.578
575.68	1.588
575.88	1.595
576.07	1.604
576.27	1.595
576.46	1.583
576.66	1.578
576.86	1.580
577.05	1.574
577.25	1.564
577.44	1.573
577.64	1.573
577.83	1.559
578.03	1.562
578.22	1.554
578.42	1.549
578.61	1.543
578.81	1.548
579.00	1.548
579.20	1.545
579.40	1.541
579.59	1.533
579.79	1.536
579.98	1.534
580.18	1.538
580.37	1.541
580.57	1.554
580.76	1.591
580.96	1.585
581.15	1.590
581.35	1.596
581.54	1.592
581.74	1.587
581.93	1.596
582.13	1.600
582.32	1.584
582.52	1.575
582.71	1.571
582.91	1.542
583.10	1.544
583.30	1.538
583.49	1.538
583.69	1.560
583.88	1.569
584.08	1.563
584.27	1.578
584.47	1.591
584.66	1.593
584.86	1.585
585.05	1.591
585.25	1.601
585.44	1.599
585.64	1.594
585.83	1.576
586.03	1.582
586.22	1.578
586.42	1.559
586.61	1.575
586.81	1.593
587.00	1.593
587.20	1.583
587.39	1.587
587.59	1.599
587.78	1.605
587.98	1.607
588.17	1.608
588.37	1.618
588.56	1.626
588.76	1.596
588.95	1.591
589.15	1.620
589.34	1.636
589.54	1.625
589.73	1.627
589.92	1.637
590.12	1.632
590.31	1.620
590.51	1.659
590.70	1.667
590.90	1.670
591.09	1.656
591.29	1.634
591.48	1.627
591.68	1.633
591.87	1.625
592.06	1.627
592.26	1.650
592.45	1.644
592.65	1.601
592.84	1.603
593.04	1.618
593.23	1.635
593.43	1.626
593.62	1.625
593.81	1.633
594.01	1.632
594.20	1.622
594.40	1.611
594.59	1.621
594.79	1.628
594.98	1.618
595.17	1.608
595.37	1.614
595.56	1.622
595.76	1.622
595.95	1.626
596.14	1.638
596.34	1.641
596.53	1.630
596.73	1.633
596.92	1.633
597.12	1.649
597.31	1.652
597.50	1.638
597.70	1.649
597.89	1.643
598.09	1.623
598.28	1.632
598.47	1.653
598.67	1.647
598.86	1.631
599.06	1.655
599.25	1.656
599.44	1.645
599.64	1.636
599.83	1.627
600.03	1.647
600.22	1.650
600.41	1.658
600.61	1.639
600.80	1.654
601.00	1.657
601.19	1.629
601.38	1.616
601.58	1.628
601.77	1.635
601.96	1.650
602.16	1.646
602.35	1.714
602.55	1.688
602.74	1.691
602.93	1.697
603.13	1.729
603.32	1.734
603.51	1.738
603.71	1.766
603.90	1.769
604.09	1.773
604.29	1.747
604.48	1.693
604.68	1.702
604.87	1.696
605.06	1.679
605.26	1.655
605.45	1.655
605.64	1.649
605.84	1.618
606.03	1.616
606.22	1.608
606.42	1.608
606.61	1.595
606.80	1.595
607.00	1.612
607.19	1.611
607.38	1.612
607.58	1.631
607.77	1.645
607.96	1.647
608.16	1.648
608.35	1.685
608.54	1.711
608.74	1.736
608.93	1.795
609.12	1.813
609.32	1.840
609.51	1.858
609.70	1.833
609.90	1.850
610.09	1.890
610.28	1.934
610.48	1.853
610.67	1.862
610.86	1.857
611.06	1.782
611.25	1.756
611.44	1.755
611.64	1.754
611.83	1.790
612.02	1.765
612.21	1.755
612.41	1.736
612.60	1.734
612.79	1.702
612.99	1.706
613.18	1.726
613.37	1.716
613.57	1.705
613.76	1.719
613.95	1.692
614.14	1.688
614.34	1.672
614.53	1.684
614.72	1.700
614.92	1.712
615.11	1.693
615.30	1.667
615.49	1.680
615.69	1.702
615.88	1.680
616.07	1.692
616.26	1.712
616.46	1.722
616.65	1.706
616.84	1.701
617.04	1.700
617.23	1.723
617.42	1.725
617.61	1.746
617.81	1.734
618.00	1.750
618.19	1.737
618.38	1.765
618.58	1.799
618.77	1.802
618.96	1.798
619.15	1.816
619.35	1.833
619.54	1.840
619.73	1.798
619.92	1.820
620.12	1.848
620.31	1.857
620.50	1.800
620.69	1.791
620.89	1.813
621.08	1.815
621.27	1.814
621.46	1.799
621.66	1.831
621.85	1.835
622.04	1.811
622.23	1.836
622.43	1.834
622.62	1.840
622.81	1.837
623.00	1.832
623.19	1.863
623.39	1.848
623.58	1.829
623.77	1.825
623.96	1.853
624.16	1.859
624.35	1.803
624.54	1.832
624.73	1.859
624.92	1.838
625.12	1.819
625.31	1.821
625.50	1.851
625.69	1.854
625.88	1.827
626.08	1.819
626.27	1.820
626.46	1.820
626.65	1.787
626.84	1.784
627.04	1.829
627.23	1.829
627.42	1.797
627.61	1.810
627.80	1.826
628.00	1.831
628.19	1.818
628.38	1.843
628.57	1.862
628.76	1.865
628.96	1.842
629.15	1.850
629.34	1.884
629.53	1.888
629.72	1.844
629.91	1.852
630.11	1.872
630.30	1.870
630.49	1.924
630.68	1.928
630.87	1.973
631.06	2.005
631.26	1.937
631.45	1.951
631.64	2.055
631.83	2.070
632.02	2.044
632.21	2.042
632.41	2.172
632.60	2.043
632.79	2.033
632.98	2.021
633.17	2.018
633.36	2.040
633.55	2.003
633.75	1.947
633.94	1.956
634.13	1.956
634.32	1.939
634.51	1.873
634.70	1.889
634.89	1.881
635.09	1.851
635.28	1.863
635.47	1.871
635.66	1.899
635.85	1.869
636.04	1.902
636.23	1.952
636.43	1.955
636.62	1.951
636.81	1.936
637.00	1.954
637.19	2.007
637.38	1.982
637.57	2.005
637.76	2.026
637.95	2.025
638.15	1.968
638.34	1.937
638.53	1.970
638.72	1.984
638.91	1.971
639.10	1.952
639.29	1.933
639.48	1.939
639.67	1.925
639.87	1.911
640.06	1.988
640.25	1.989
640.44	2.000
640.63	2.009
640.82	2.045
641.01	2.049
641.20	2.060
641.39	2.119
641.58	2.148
641.78	2.139
641.97	2.072
642.16	2.526
642.35	2.515
642.54	2.460
642.73	2.310
642.92	2.262
643.11	2.345
643.30	2.345
643.49	2.233
643.68	2.296
643.87	2.294
644.06	2.304
644.25	1.904
644.45	1.959
644.64	1.977
644.83	1.986
645.02	1.969
645.21	1.951
645.40	1.946
645.59	1.939
645.78	1.890
645.97	1.935
646.16	1.928
646.35	1.922
646.54	1.890
646.73	1.909
646.92	1.940
647.11	1.926
647.30	1.898
647.49	1.934
647.68	1.926
647.88	1.911
648.07	1.847
648.26	1.906
648.45	1.908
648.64	1.899
648.83	1.870
649.02	1.906
649.21	2.075
649.40	2.068
649.59	2.006
649.78	2.041
649.97	2.453
650.16	2.428
650.35	2.237
650.54	2.429
650.73	2.918
650.92	2.668
651.11	2.357
651.30	2.272
651.49	2.385
651.68	2.406
651.87	2.312
652.06	2.016
652.25	2.041
652.44	2.053
652.63	1.949
652.82	1.920
653.01	1.909
653.20	1.889
653.39	1.785
653.58	1.768
653.77	1.762
653.96	1.731
654.15	1.684
654.34	1.681
654.53	1.667
654.72	1.642
654.91	1.594
655.10	1.580
655.29	1.575
655.48	1.562
655.67	1.540
655.86	1.535
656.05	1.529
656.24	1.530
656.43	1.507
656.62	1.512
656.81	1.529
657.00	1.527
657.19	1.524
657.38	1.529
657.57	1.536
657.76	1.554
657.95	1.548
658.14	1.578
658.33	1.601
658.51	1.641
658.70	1.635
658.89	1.625
659.08	1.676
659.27	1.720
659.46	1.713
659.65	1.750
659.84	1.773
660.03	1.792
660.22	1.791
660.41	1.836
660.60	1.831
660.79	1.847
660.98	1.926
661.17	1.890
661.36	1.870
661.55	1.889
661.74	1.863
661.92	1.890
662.11	1.921
662.30	1.898
662.49	1.825
662.68	1.816
662.87	1.829
663.06	1.765
663.25	1.791
663.44	1.792
663.63	1.793
663.82	1.791
664.01	1.740
664.20	1.730
664.38	1.745
664.57	1.752
664.76	1.751
664.95	1.771
665.14	1.814
665.33	1.781
665.52	1.903
665.71	1.981
665.90	1.990
666.09	2.045
666.28	2.003
666.46	1.964
666.65	1.967
666.84	1.954
667.03	1.896
667.22	1.888
667.41	1.912
667.60	1.776
667.79	1.706
667.98	1.718
668.16	1.715
668.35	1.715
668.54	1.705
668.73	1.716
668.92	1.724
669.11	1.718
669.30	1.677
669.49	1.654
669.67	1.678
669.86	1.707
670.05	1.688
670.24	1.674
670.43	1.673
670.62	1.668
670.81	1.636
671.00	1.641
671.18	1.638
671.37	1.633
671.56	1.625
671.75	1.613
671.94	1.590
672.13	1.581
672.32	1.559
672.50	1.560
672.69	1.562
672.88	1.569
673.07	1.547
673.26	1.566
673.45	1.574
673.63	1.572
673.82	1.558
674.01	1.574
674.20	1.569
674.39	1.567
674.58	1.563
674.76	1.572
674.95	1.571
675.14	1.574
675.33	1.548
675.52	1.545
675.71	1.548
675.89	1.550
676.08	1.529
676.27	1.531
676.46	1.536
676.65	1.536
676.84	1.532
677.02	1.538
677.21	1.543
677.40	1.544
677.59	1.540
677.78	1.540
677.96	1.553
678.15	1.552
678.34	1.549
678.53	1.554
678.72	1.550
678.90	1.534
679.09	1.521
679.28	1.512
679.47	1.508
679.66	1.501
679.84	1.492
680.03	1.479
680.22	1.475
680.41	1.486
680.60	1.472
680.78	1.471
680.97	1.485
681.16	1.483
681.35	1.477
681.53	1.475
681.72	1.480
681.91	1.490
682.10	1.482
682.29	1.494
682.47	1.480
682.66	1.464
682.85	1.459
683.04	1.451
683.22	1.452
683.41	1.466
683.60	1.463
683.79	1.474
683.97	1.466
684.16	1.467
684.35	1.451
684.54	1.458
684.72	1.474
684.91	1.481
685.10	1.470
685.29	1.480
685.47	1.464
685.66	1.463
685.85	1.446
686.04	1.447
686.22	1.454
686.41	1.476
686.60	1.463
686.79	1.485
686.97	1.486
687.16	1.497
687.35	1.482
687.54	1.505
687.72	1.525
687.91	1.527
688.10	1.543
688.29	1.548
688.47	1.525
688.66	1.530
688.85	1.505
689.03	1.499
689.22	1.537
689.41	1.541
689.60	1.516
689.78	1.503
689.97	1.507
690.16	1.494
690.34	1.477
690.53	1.483
690.72	1.483
690.91	1.475
691.09	1.468
691.28	1.432
691.47	1.430
691.65	1.429
691.84	1.419
692.03	1.416
692.21	1.406
692.40	1.406
692.59	1.395
692.77	1.394
692.96	1.400
693.15	1.405
693.34	1.398
693.52	1.394
693.71	1.393
693.90	1.397
694.08	1.405
694.27	1.412
694.46	1.475
694.64	1.479
694.83	1.476
695.02	1.474
695.20	1.473
695.39	1.472
695.58	1.474
695.76	1.482
695.95	1.474
696.14	1.469
696.32	1.459
696.51	1.399
696.70	1.399
696.88	1.408
697.07	1.400
697.26	1.405
697.44	1.411
697.63	1.404
697.81	1.393
698.00	1.399
698.19	1.395
698.37	1.396
698.56	1.394
698.75	1.394
698.93	1.390
699.12	1.391
699.31	1.389
699.49	1.384
699.68	1.391
699.87	1.407
700.05	1.405
700.24	1.401
700.42	1.407
700.61	1.406
700.80	1.398
700.98	1.405
701.17	1.406
701.36	1.401
701.54	1.401
701.73	1.408
701.91	1.397
702.10	1.395
702.29	1.393
702.47	1.391
702.66	1.403
702.84	1.411
703.03	1.402
703.22	1.416
703.40	1.417
703.59	1.428
703.77	1.429
703.96	1.428
704.15	1.435
704.33	1.433
704.52	1.430
704.70	1.424
704.89	1.421
705.08	1.419
705.26	1.402
705.45	1.399
705.63	1.395
705.82	1.384
706.00	1.379
706.19	1.378
706.38	1.379
706.56	1.376
706.75	1.369
706.93	1.365
707.12	1.369
707.30	1.371
707.49	1.366
707.68	1.358
707.86	1.354
708.05	1.353
708.23	1.344
708.42	1.345
708.60	1.361
708.79	1.360
708.98	1.355
709.16	1.352
709.35	1.360
709.53	1.383
709.72	1.381
709.90	1.388
710.09	1.396
710.27	1.402
710.46	1.428
710.64	1.416
710.83	1.419
711.02	1.430
711.20	1.429
711.39	1.418
711.57	1.397
711.76	1.401
711.94	1.397
712.13	1.403
712.31	1.402
712.50	1.376
712.68	1.367
712.87	1.374
713.05	1.373
713.24	1.373
713.42	1.370
713.61	1.373
713.79	1.380
713.98	1.377
714.16	1.385
714.35	1.380
714.54	1.384
714.72	1.385
714.91	1.376
715.09	1.414
715.28	1.427
715.46	1.431
715.65	1.420
715.83	1.416
716.02	1.433
716.20	1.415
716.39	1.419
716.57	1.425
716.76	1.439
716.94	1.445
717.12	1.399
717.31	1.410
717.49	1.425
717.68	1.438
717.86	1.434
718.05	1.437
718.23	1.445
718.42	1.454
718.60	1.467
718.79	1.534
718.97	1.541
719.16	1.544
719.34	1.534
719.53	1.531
719.71	1.529
719.90	1.537
720.08	1.521
720.27	1.522
720.45	1.525
720.63	1.507
720.82	1.453
721.00	1.471
721.19	1.485
721.37	1.474
721.56	1.474
721.74	1.485
721.93	1.547
722.11	1.598
722.30	1.597
722.48	1.627
722.66	1.625
722.85	1.613
723.03	1.615
723.22	1.611
723.40	1.634
723.59	1.632
723.77	1.682
723.95	1.610
724.14	1.628
724.32	1.642
724.51	1.633
724.69	1.655
724.88	1.653
725.06	1.636
725.24	1.635
725.43	1.643
725.61	1.669
725.80	1.605
725.98	1.605
726.16	1.558
726.35	1.603
726.53	1.590
726.72	1.577
726.90	1.671
727.09	1.673
727.27	1.740
727.45	1.707
727.64	1.790
727.82	1.868
728.01	1.896
728.19	1.893
728.37	1.960
728.56	2.023
728.74	2.199
728.92	1.931
729.11	1.961
729.29	1.887
729.48	1.923
729.66	1.802
729.84	1.779
730.03	1.796
730.21	1.801
730.40	1.683
730.58	1.680
730.76	1.650
730.95	1.660
731.13	1.650
731.31	1.784
731.50	1.850
731.68	1.875
731.86	1.873
732.05	2.167
732.23	2.208
732.42	2.339
732.60	2.482
732.78	2.783
732.97	-0.000
733.15	-0.000
733.33	-0.000
733.52	-0.000
733.70	-0.000
733.88	-0.000
734.07	-0.000
734.25	-0.000
734.43	-0.000
734.62	-0.000
734.80	-0.000
734.98	-0.000
735.17	-0.000
735.35	-0.000
735.53	-0.000
735.72	-0.000
735.90	-0.000
736.08	-0.000
736.27	-0.000
736.45	-0.000
736.63	-0.000
736.82	-0.000
737.00	-0.000
737.18	-0.000
737.37	-0.000
737.55	-0.000
737.73	-0.000
737.92	-0.000
738.10	-0.000
738.28	-0.000
738.46	-0.000
738.65	-0.000
738.83	-0.000
739.01	-0.000
739.20	-0.000
739.38	-0.000
739.56	-0.000
739.75	-0.000
739.93	-0.000
740.11	-0.000
740.29	-0.000
740.48	-0.000
740.66	-0.000
740.84	-0.000
741.03	-0.000
741.21	-0.000
741.39	-0.000
741.57	-0.000
741.76	-0.000
741.94	-0.000
742.12	-0.000
742.31	-0.000
742.49	-0.000
742.67	-0.000
742.85	-0.000
743.04	-0.000
743.22	-0.000
743.40	-0.000
743.58	-0.000
743.77	-0.000
743.95	-0.000
744.13	-0.000
744.31	-0.000
744.50	-0.000
744.68	-0.000
744.86	-0.000
745.04	-0.000
745.23	-0.000
745.41	-0.000
745.59	-0.000
745.77	-0.000
745.96	-0.000
746.14	-0.000
746.32	-0.000
746.50	-0.000
746.69	-0.000
746.87	-0.000
747.05	-0.000
747.23	-0.000
747.42	-0.000
747.60	-0.000
747.78	-0.000
747.96	-0.000
748.14	-0.000
748.33	-0.000
748.51	-0.000
748.69	-0.000
748.87	-0.000
749.06	-0.000
749.24	-0.000
749.42	-0.000
749.60	-0.000
749.78	-0.000
749.97	-0.000
750.15	-0.000
750.33	-0.000
750.51	-0.000
750.69	-0.000
750.88	-0.000
751.06	-0.000
751.24	-0.000
751.42	-0.000
751.60	-0.000
751.79	-0.000
751.97	-0.000
752.15	-0.000
752.33	-0.000
752.51	-0.000
752.69	-0.000
752.88	-0.000
753.06	-0.000
753.24	-0.000
753.42	-0.000
753.60	-0.000
753.78	-0.000
753.97	-0.000
754.15	-0.000
754.33	-0.000
754.51	-0.000
754.69	-0.000
754.87	-0.000
755.06	-0.000
755.24	-0.000
755.42	-0.000
755.60	-0.000
755.78	-0.000
755.96	-0.000
756.15	-0.000
756.33	-0.000
756.51	-0.000
756.69	-0.000
756.87	-0.000
757.05	-0.000
757.23	-0.000
757.42	-0.000
757.60	-0.000
757.78	-0.000
757.96	-0.000
758.14	-0.000
758.32	-0.000
758.50	-0.000
758.69	-0.000
758.87	-0.000
759.05	-0.000
759.23	-0.000
759.41	-0.000
759.59	-0.000
759.77	-0.000
759.95	-0.000
760.13	-0.000
760.32	-0.000
760.50	-0.000
760.68	-0.000
760.86	-0.000
761.04	-0.000
761.22	-0.000
761.40	-0.000
761.58	-0.000
761.76	-0.000
761.95	-0.000
762.13	-0.000
762.31	-0.000
762.49	-0.000
762.67	-0.000
762.85	-0.000
763.03	-0.000
763.21	-0.000
763.39	-0.000
763.57	-0.000
763.75	-0.000
763.94	-0.000
764.12	-0.000
764.30	-0.000
764.48	-0.000
764.66	-0.000
764.84	-0.000
765.02	-0.000
765.20	-0.000
765.38	-0.000
765.56	-0.000
765.74	-0.000
765.92	-0.000
766.10	-0.000
766.28	-0.000
766.46	-0.000
766.65	-0.000
766.83	-0.000
767.01	-0.000
767.19	-0.000
767.37	-0.000
767.55	-0.000
767.73	-0.000
767.91	-0.000
768.09	-0.000
768.27	-0.000
768.45	-0.000
768.63	-0.000
768.81	-0.000
768.99	-0.000
769.17	-0.000
769.35	-0.000
769.53	-0.000
769.71	-0.000
769.89	-0.000
770.07	-0.000
770.25	-0.000
770.43	-0.000
770.61	-0.000
770.79	-0.000
770.97	-0.000
771.15	-0.000
771.33	-0.000
771.51	-0.000
771.69	-0.000
771.87	-0.000
772.05	-0.000
772.24	-0.000
772.42	-0.000
772.60	-0.000
772.78	-0.000
772.96	-0.000
773.14	-0.000
773.32	-0.000
773.49	-0.000
773.67	-0.000
773.85	-0.000
774.03	-0.000
774.21	-0.000
774.39	-0.000
774.57	-0.000
774.75	-0.000
774.93	-0.000
775.11	-0.000
775.29	-0.000
775.47	-0.000
775.65	-0.000
775.83	-0.000
776.01	-0.000
776.19	-0.000
776.37	-0.000
776.55	-0.000
776.73	-0.000
776.91	-0.000
777.09	-0.000
777.27	-0.000
777.45	-0.000
777.63	-0.000
777.81	-0.000
777.99	-0.000
778.17	-0.000
778.35	-0.000
778.53	-0.000
778.71	-0.000
778.89	-0.000
779.07	-0.000
779.24	-0.000
779.42	-0.000
779.60	-0.000
779.78	-0.000
779.96	-0.000
780.14	-0.000
780.32	-0.000
780.50	-0.000
780.68	-0.000
780.86	-0.000
781.04	-0.000
781.22	-0.000
781.40	-0.000
781.58	-0.000
781.75	-0.000
781.93	-0.000
782.11	-0.000
782.29	-0.000
782.47	-0.000
782.65	-0.000
782.83	-0.000
783.01	-0.000
783.19	-0.000
783.37	-0.000
783.55	-0.000
783.72	-0.000
783.90	-0.000
784.08	-0.000
784.26	-0.000
784.44	-0.000
784.62	-0.000
784.80	-0.000
784.98	-0.000
785.16	-0.000
785.33	-0.000
785.51	-0.000
785.69	-0.000
785.87	-0.000
786.05	-0.000
786.23	-0.000
786.41	-0.000
786.59	-0.000
786.77	-0.000
786.94	-0.000
787.12	-0.000
787.30	-0.000
787.48	-0.000
787.66	-0.000
787.84	-0.000
788.02	-0.000
788.19	-0.000
788.37	-0.000
788.55	-0.000
788.73	-0.000
788.91	-0.000
789.09	-0.000
789.27	-0.000
789.44	-0.000
789.62	-0.000
789.80	-0.000
789.98	-0.000
790.16	-0.000
790.34	-0.000
790.51	-0.000
790.69	-0.000
790.87	-0.000
791.05	-0.000
791.23	-0.000
791.41	-0.000
791.58	-0.000
791.76	-0.000
791.94	-0.000
792.12	-0.000
792.30	-0.000
792.48	-0.000
792.65	-0.000
792.83	-0.000
793.01	-0.000
793.19	-0.000
793.37	-0.000
793.54	-0.000
793.72	-0.000
793.90	-0.000
794.08	-0.000
794.26	-0.000
794.43	-0.000
794.61	-0.000
794.79	-0.000
794.97	-0.000
795.15	-0.000
795.32	-0.000
795.50	-0.000
795.68	-0.000
795.86	-0.000
796.04	-0.000
796.21	-0.000
796.39	-0.000
796.57	-0.000
796.75	-0.000
796.92	-0.000
797.10	-0.000
797.28	-0.000
797.46	-0.000
797.64	-0.000
797.81	-0.000
797.99	-0.000
798.17	-0.000
798.35	-0.000
798.52	-0.000
798.70	-0.000
798.88	-0.000
799.06	-0.000
799.23	-0.000
799.41	-0.000
799.59	-0.000
799.77	-0.000
799.94	-0.000
800.12	-0.000
800.30	-0.000
800.48	-0.000
800.65	-0.000
800.83	-0.000
801.01	-0.000
801.19	-0.000
801.36	-0.000
801.54	-0.000
801.72	-0.000
801.90	-0.000
802.07	-0.000
802.25	-0.000
802.43	-0.000
802.60	-0.000
802.78	-0.000
802.96	-0.000
803.14	-0.000
803.31	-0.000
803.49	-0.000
803.67	-0.000
803.84	-0.000
804.02	-0.000
804.20	-0.000
804.38	-0.000
804.55	-0.000
804.73	-0.000
804.91	-0.000
805.08	-0.000
805.26	-0.000
805.44	-0.000
805.61	-0.000
805.79	-0.000
805.97	-0.000
806.15	-0.000
806.32	-0.000
806.50	-0.000
806.68	-0.000
806.85	-0.000
807.03	-0.000
807.21	-0.000
807.38	-0.000
807.56	-0.000
807.74	-0.000
807.91	-0.000
808.09	-0.000
808.27	-0.000
808.44	-0.000
808.62	-0.000
808.80	-0.000
808.97	-0.000
809.15	-0.000
809.33	-0.000
809.50	-0.000
809.68	-0.000
809.86	-0.000
810.03	-0.000
810.21	-0.000
810.39	-0.000
810.56	-0.000
810.74	-0.000
810.91	-0.000
811.09	-0.000
811.27	-0.000
811.44	-0.000
811.62	-0.000
811.80	-0.000
811.97	-0.000
812.15	-0.000
812.33	-0.000
812.50	-0.000
812.68	-0.000
812.85	-0.000
813.03	-0.000
813.21	-0.000
813.38	-0.000
813.56	-0.000
813.74	-0.000
813.91	-0.000
814.09	-0.000
814.26	-0.000
814.44	-0.000
814.62	-0.000
814.79	-0.000
814.97	-0.000
815.14	-0.000
815.32	-0.000
815.50	-0.000
815.67	-0.000
815.85	-0.000
816.02	-0.000
816.20	-0.000
816.38	-0.000
816.55	-0.000
816.73	-0.000
816.90	-0.000
817.08	-0.000
817.26	-0.000
817.43	-0.000
817.61	-0.000
817.78	-0.000
817.96	-0.000
818.13	-0.000
818.31	-0.000
818.49	-0.000
818.66	-0.000
818.84	-0.000
819.01	-0.000
819.19	-0.000
819.36	-0.000
819.54	-0.000
819.71	-0.000
819.89	-0.000
820.07	-0.000
820.24	-0.000
820.42	-0.000
820.59	-0.000
820.77	-0.000
820.94	-0.000
821.12	-0.000
821.29	-0.000
821.47	-0.000
821.64	-0.000
821.82	-0.000
822.00	-0.000
822.17	-0.000
822.35	-0.000
822.52	-0.000
822.70	-0.000
822.87	-0.000
823.05	-0.000
823.22	-0.000
823.40	-0.000
823.57	-0.000
823.75	-0.000
823.92	-0.000
824.10	-0.000
824.27	-0.000
824.45	-0.000
824.62	-0.000
824.80	-0.000
824.97	-0.000
825.15	-0.000
825.32	-0.000
825.50	-0.000
825.67	-0.000
825.85	-0.000
826.02	-0.000
826.20	-0.000
826.37	-0.000
826.55	-0.000
826.72	-0.000
826.90	-0.000
827.07	-0.000
827.25	-0.000
827.42	-0.000
827.60	-0.000
827.77	-0.000
827.95	-0.000
828.12	-0.000
828.30	-0.000
828.47	-0.000
828.65	-0.000
828.82	-0.000
829.00	-0.000
829.17	-0.000
829.34	-0.000
829.52	-0.000
829.69	-0.000
829.87	-0.000
830.04	-0.000
830.22	-0.000
830.39	-0.000
830.57	-0.000
830.74	-0.000
830.92	-0.000
831.09	-0.000
831.26	-0.000
831.44	-0.000
831.61	-0.000
831.79	-0.000
831.96	-0.000
832.14	-0.000
832.31	-0.000
832.49	-0.000
832.66	-0.000
832.83	-0.000
833.01	-0.000
833.18	-0.000
833.36	-0.000
833.53	-0.000
833.70	-0.000
833.88	-0.000
834.05	-0.000
834.23	-0.000
834.40	-0.000
834.58	-0.000
834.75	-0.000
834.92	-0.000
835.10	-0.000
835.27	-0.000
835.45	-0.000
835.62	-0.000
835.79	-0.000
835.97	-0.000
836.14	-0.000
836.32	-0.000
836.49	-0.000
836.66	-0.000
836.84	-0.000
837.01	-0.000
837.18	-0.000
837.36	-0.000
837.53	-0.000
837.71	-0.000
837.88	-0.000
838.05	-0.000
838.23	-0.000
838.40	-0.000
838.58	-0.000
838.75	-0.000
838.92	-0.000
839.10	-0.000
839.27	-0.000
839.44	-0.000
839.62	-0.000
839.79	-0.000
839.96	-0.000
840.14	-0.000
840.31	-0.000
840.48	-0.000
840.66	-0.000
840.83	-0.000
841.01	-0.000
841.18	-0.000
841.35	-0.000
841.53	-0.000
841.70	-0.000
841.87	-0.000
842.05	-0.000
842.22	-0.000
842.39	-0.000
842.57	-0.000
842.74	-0.000
842.91	-0.000
843.09	-0.000
843.26	-0.000
843.43	-0.000
843.60	-0.000
843.78	-0.000
843.95	-0.000
844.12	-0.000
844.30	-0.000
844.47	-0.000
844.64	-0.000
844.82	-0.000
844.99	-0.000
845.16	-0.000
845.34	-0.000
845.51	-0.000
845.68	-0.000
845.85	-0.000
846.03	-0.000
846.20	-0.000
846.37	-0.000
846.55	-0.000
846.72	-0.000
846.89	-0.000
847.06	-0.000
847.24	-0.000
847.41	-0.000
847.58	-0.000
847.76	-0.000
847.93	-0.000
848.10	-0.000
848.27	-0.000
848.45	-0.000
848.62	-0.000
848.79	-0.000
848.97	-0.000
849.14	-0.000
849.31	-0.000
849.48	-0.000
849.66	-0.000
849.83	-0.000
850.00	-0.000
850.17	-0.000
850.35	-0.000
850.52	-0.000
850.69	-0.000
850.86	-0.000
851.04	-0.000
851.21	-0.000
851.38	-0.000
851.55	-0.000
851.72	-0.000
851.90	-0.000
852.07	-0.000
852.24	-0.000
852.41	-0.000
852.59	-0.000
852.76	-0.000
852.93	-0.000
853.10	-0.000
853.28	-0.000
853.45	-0.000
853.62	-0.000
853.79	-0.000
853.96	-0.000
854.14	-0.000
854.31	-0.000
854.48	-0.000
854.65	-0.000
854.82	-0.000
855.00	-0.000
855.17	-0.000
855.34	-0.000
855.51	-0.000
855.68	-0.000
855.86	-0.000
856.03	-0.000
856.20	-0.000
856.37	-0.000
856.54	-0.000
856.72	-0.000
856.89	-0.000
857.06	-0.000
857.23	-0.000
857.40	-0.000
857.57	-0.000
857.75	-0.000
857.92	-0.000
858.09	-0.000
858.26	-0.000
858.43	-0.000
858.60	-0.000
858.78	-0.000
858.95	-0.000
859.12	-0.000
859.29	-0.000
859.46	-0.000
859.63	-0.000
859.81	-0.000
859.98	-0.000
860.15	-0.000
860.32	-0.000
860.49	-0.000
860.66	-0.000
860.83	-0.000
861.01	-0.000
861.18	-0.000
861.35	-0.000
861.52	-0.000
861.69	-0.000
861.86	-0.000
862.03	-0.000
862.21	-0.000
862.38	-0.000
862.55	-0.000
862.72	-0.000
862.89	-0.000
863.06	-0.000
863.23	-0.000
863.40	-0.000
863.58	-0.000
863.75	-0.000
863.92	-0.000
864.09	-0.000
864.26	-0.000
864.43	-0.000
864.60	-0.000
864.77	-0.000
864.94	-0.000
865.11	-0.000
865.29	-0.000
865.46	-0.000
865.63	-0.000
865.80	-0.000
865.97	-0.000
866.14	-0.000
866.31	-0.000
866.48	-0.000
866.65	-0.000
866.82	-0.000
866.99	-0.000
867.16	-0.000
867.34	-0.000
867.51	-0.000
867.68	-0.000
867.85	-0.000
868.02	-0.000
868.19	-0.000
868.36	-0.000
868.53	-0.000
868.70	-0.000
868.87	-0.000
869.04	-0.000
869.21	-0.000
869.38	-0.000
869.55	-0.000
869.72	-0.000
869.89	-0.000
870.06	-0.000
870.24	-0.000
870.41	-0.000
870.58	-0.000
870.75	-0.000
870.92	-0.000
871.09	-0.000
871.26	-0.000
871.43	-0.000
871.60	-0.000
871.77	-0.000
871.94	-0.000
872.11	-0.000
872.28	-0.000
872.45	-0.000
872.62	-0.000
872.79	-0.000
872.96	-0.000
873.13	-0.000
873.30	-0.000
873.47	-0.000
873.64	-0.000
873.81	-0.000
873.98	-0.000
874.15	-0.000
874.32	-0.000
874.49	-0.000
874.66	-0.000
874.83	-0.000
875.00	-0.000
875.17	-0.000
875.34	-0.000
875.51	-0.000
875.68	-0.000
875.85	-0.000
876.02	-0.000
876.19	-0.000
876.36	-0.000
876.53	-0.000
876.70	-0.000
876.87	-0.000
877.04	-0.000
877.21	-0.000
877.38	-0.000
877.55	-0.000
877.72	-0.000
877.89	-0.000
878.06	-0.000
878.23	-0.000
878.39	-0.000
878.56	-0.000
878.73	-0.000
878.90	-0.000
879.07	-0.000
879.24	-0.000
879.41	-0.000
879.58	-0.000
879.75	-0.000
879.92	-0.000
880.09	-0.000
880.26	-0.000
880.43	-0.000
880.60	-0.000
880.77	-0.000
880.94	-0.000
881.11	-0.000
881.27	-0.000
881.44	-0.000
881.61	-0.000
881.78	-0.000
881.95	-0.000
882.12	-0.000
882.29	-0.000
882.46	-0.000
882.63	-0.000
882.80	-0.000
882.97	-0.000
883.14	-0.000
883.30	-0.000
883.47	-0.000
883.64	-0.000
883.81	-0.000
883.98	-0.000
884.15	-0.000
884.32	-0.000
884.49	-0.000
884.66	-0.000
884.82	-0.000
884.99	-0.000
885.16	-0.000
885.33	-0.000
885.50	-0.000
885.67	-0.000
885.84	-0.000
886.01	-0.000
886.17	-0.000
886.34	-0.000
886.51	-0.000
886.68	-0.000
886.85	-0.000
887.02	-0.000
887.19	-0.000
887.36	-0.000
887.52	-0.000
887.69	-0.000
887.86	-0.000
888.03	-0.000
888.20	-0.000
888.37	-0.000
888.54	-0.000
888.70	-0.000
888.87	-0.000
889.04	-0.000
889.21	-0.000
889.38	-0.000
889.55	-0.000
889.71	-0.000
889.88	-0.000
890.05	-0.000
890.22	-0.000
890.39	-0.000
>>>>>End Processed Spectral Data<<<<<
