SpectraSuite Data File
++++++++++++++++++++++++++++++++++++
Date: Fri Jun 19 16:50:45 CEST 2015
User: introlabs
Dark Spectrum Present: Yes
Reference Spectrum Present: Yes
Number of Sampled Component Spectra: 1
Spectrometers: USB4H08886
Integration Time (usec): 745692 (USB4H08886)
Spectra Averaged: 5 (USB4H08886)
Boxcar Smoothing: 5 (USB4H08886)
Correct for Electrical Dark: Yes (USB4H08886)
Strobe/Lamp Enabled: No (USB4H08886)
Correct for Detector Non-linearity: Yes (USB4H08886)
Correct for Stray Light: Yes (USB4H08886)
Number of Pixels in Processed Spectrum: 3648
>>>>>Begin Processed Spectral Data<<<<<
178.14	-0.000
178.36	-0.000
178.57	-0.000
178.79	-0.000
179.01	-0.000
179.22	-0.000
179.44	-0.000
179.65	-0.000
179.87	-0.000
180.08	-0.000
180.30	-0.000
180.52	-0.000
180.73	-0.000
180.95	-0.000
181.16	-0.000
181.38	-0.000
181.59	-0.000
181.81	-0.000
182.03	-0.000
182.24	-0.000
182.46	-0.000
182.67	-0.000
182.89	-0.000
183.10	-0.000
183.32	-0.000
183.54	-0.000
183.75	-0.000
183.97	-0.000
184.18	-0.000
184.40	-0.000
184.61	-0.000
184.83	-0.000
185.04	-0.000
185.26	-0.000
185.48	-0.000
185.69	-0.000
185.91	-0.000
186.12	-0.000
186.34	-0.000
186.55	-0.000
186.77	-0.000
186.98	-0.000
187.20	-0.000
187.42	-0.000
187.63	-0.000
187.85	-0.000
188.06	-0.000
188.28	-0.000
188.49	-0.000
188.71	-0.000
188.92	-0.000
189.14	-0.000
189.36	-0.000
189.57	-0.000
189.79	-0.000
190.00	-0.000
190.22	-0.000
190.43	-0.000
190.65	-0.000
190.86	-0.000
191.08	-0.000
191.29	-0.000
191.51	-0.000
191.72	-0.000
191.94	-0.000
192.16	-0.000
192.37	-0.000
192.59	-0.000
192.80	-0.000
193.02	-0.000
193.23	-0.000
193.45	-0.000
193.66	-0.000
193.88	-0.000
194.09	-0.000
194.31	-0.000
194.52	-0.000
194.74	-0.000
194.95	-0.000
195.17	-0.000
195.38	-0.000
195.60	-0.000
195.81	-0.000
196.03	-0.000
196.25	-0.000
196.46	-0.000
196.68	-0.000
196.89	-0.000
197.11	-0.000
197.32	-0.000
197.54	-0.000
197.75	-0.000
197.97	-0.000
198.18	-0.000
198.40	-0.000
198.61	-0.000
198.83	-0.000
199.04	-0.000
199.26	-0.000
199.47	-0.000
199.69	-0.000
199.90	-0.000
200.12	-0.000
200.33	-0.000
200.55	-0.000
200.76	-0.000
200.98	-0.000
201.19	-0.000
201.41	-0.000
201.62	-0.000
201.84	-0.000
202.05	-0.000
202.27	-0.000
202.48	-0.000
202.70	-0.000
202.91	-0.000
203.13	-0.000
203.34	-0.000
203.56	-0.000
203.77	-0.000
203.99	-0.000
204.20	-0.000
204.42	-0.000
204.63	-0.000
204.85	-0.000
205.06	-0.000
205.28	-0.000
205.49	-0.000
205.71	-0.000
205.92	-0.000
206.14	-0.000
206.35	-0.000
206.56	-0.000
206.78	-0.000
206.99	-0.000
207.21	-0.000
207.42	-0.000
207.64	-0.000
207.85	-0.000
208.07	-0.000
208.28	-0.000
208.50	-0.000
208.71	-0.000
208.93	-0.000
209.14	-0.000
209.36	-0.000
209.57	-0.000
209.79	-0.000
210.00	-0.000
210.22	-0.000
210.43	-0.000
210.64	-0.000
210.86	-0.000
211.07	-0.000
211.29	-0.000
211.50	-0.000
211.72	-0.000
211.93	-0.000
212.15	-0.000
212.36	-0.000
212.58	-0.000
212.79	-0.000
213.01	-0.000
213.22	-0.000
213.43	-0.000
213.65	-0.000
213.86	-0.000
214.08	-0.000
214.29	-0.000
214.51	-0.000
214.72	-0.000
214.94	-0.000
215.15	-0.000
215.36	-0.000
215.58	-0.000
215.79	-0.000
216.01	-0.000
216.22	-0.000
216.44	-0.000
216.65	-0.000
216.87	-0.000
217.08	-0.000
217.29	-0.000
217.51	-0.000
217.72	-0.000
217.94	-0.000
218.15	-0.000
218.37	-0.000
218.58	-0.000
218.80	-0.000
219.01	-0.000
219.22	-0.000
219.44	-0.000
219.65	-0.000
219.87	-0.000
220.08	-0.000
220.30	-0.000
220.51	-0.000
220.72	-0.000
220.94	-0.000
221.15	-0.000
221.37	-0.000
221.58	-0.000
221.79	-0.000
222.01	-0.000
222.22	-0.000
222.44	-0.000
222.65	-0.000
222.87	-0.000
223.08	-0.000
223.29	-0.000
223.51	-0.000
223.72	-0.000
223.94	-0.000
224.15	-0.000
224.36	-0.000
224.58	-0.000
224.79	-0.000
225.01	-0.000
225.22	-0.000
225.44	-0.000
225.65	-0.000
225.86	-0.000
226.08	-0.000
226.29	-0.000
226.51	-0.000
226.72	-0.000
226.93	-0.000
227.15	-0.000
227.36	-0.000
227.58	-0.000
227.79	-0.000
228.00	-0.000
228.22	-0.000
228.43	-0.000
228.65	-0.000
228.86	-0.000
229.07	-0.000
229.29	-0.000
229.50	-0.000
229.72	-0.000
229.93	-0.000
230.14	-0.000
230.36	-0.000
230.57	-0.000
230.78	-0.000
231.00	-0.000
231.21	-0.000
231.43	-0.000
231.64	-0.000
231.85	-0.000
232.07	-0.000
232.28	-0.000
232.50	-0.000
232.71	-0.000
232.92	-0.000
233.14	-0.000
233.35	-0.000
233.56	-0.000
233.78	-0.000
233.99	-0.000
234.21	-0.000
234.42	-0.000
234.63	-0.000
234.85	-0.000
235.06	-0.000
235.27	-0.000
235.49	-0.000
235.70	-0.000
235.91	-0.000
236.13	-0.000
236.34	-0.000
236.56	-0.000
236.77	-0.000
236.98	-0.000
237.20	-0.000
237.41	-0.000
237.62	-0.000
237.84	-0.000
238.05	-0.000
238.26	-0.000
238.48	-0.000
238.69	-0.000
238.91	-0.000
239.12	-0.000
239.33	-0.000
239.55	-0.000
239.76	-0.000
239.97	-0.000
240.19	-0.000
240.40	-0.000
240.61	-0.000
240.83	-0.000
241.04	-0.000
241.25	-0.000
241.47	-0.000
241.68	-0.000
241.89	-0.000
242.11	-0.000
242.32	-0.000
242.53	-0.000
242.75	-0.000
242.96	-0.000
243.17	-0.000
243.39	-0.000
243.60	-0.000
243.81	-0.000
244.03	-0.000
244.24	-0.000
244.45	-0.000
244.67	-0.000
244.88	-0.000
245.09	-0.000
245.31	-0.000
245.52	-0.000
245.73	-0.000
245.95	-0.000
246.16	-0.000
246.37	-0.000
246.59	-0.000
246.80	-0.000
247.01	-0.000
247.23	-0.000
247.44	-0.000
247.65	-0.000
247.87	-0.000
248.08	-0.000
248.29	-0.000
248.51	-0.000
248.72	-0.000
248.93	-0.000
249.15	-0.000
249.36	-0.000
249.57	-0.000
249.78	-0.000
250.00	-0.000
250.21	-0.000
250.42	-0.000
250.64	-0.000
250.85	-0.000
251.06	-0.000
251.28	-0.000
251.49	-0.000
251.70	-0.000
251.92	-0.000
252.13	-0.000
252.34	-0.000
252.55	-0.000
252.77	-0.000
252.98	-0.000
253.19	-0.000
253.41	-0.000
253.62	-0.000
253.83	-0.000
254.05	-0.000
254.26	-0.000
254.47	-0.000
254.68	-0.000
254.90	-0.000
255.11	-0.000
255.32	-0.000
255.54	-0.000
255.75	-0.000
255.96	-0.000
256.17	-0.000
256.39	-0.000
256.60	-0.000
256.81	-0.000
257.03	-0.000
257.24	-0.000
257.45	-0.000
257.66	-0.000
257.88	-0.000
258.09	-0.000
258.30	-0.000
258.51	-0.000
258.73	-0.000
258.94	-0.000
259.15	-0.000
259.37	-0.000
259.58	-0.000
259.79	-0.000
260.00	-0.000
260.22	-0.000
260.43	-0.000
260.64	-0.000
260.85	-0.000
261.07	-0.000
261.28	-0.000
261.49	-0.000
261.71	-0.000
261.92	-0.000
262.13	-0.000
262.34	-0.000
262.56	-0.000
262.77	-0.000
262.98	-0.000
263.19	-0.000
263.41	-0.000
263.62	-0.000
263.83	-0.000
264.04	-0.000
264.26	-0.000
264.47	-0.000
264.68	-0.000
264.89	-0.000
265.11	-0.000
265.32	-0.000
265.53	-0.000
265.74	-0.000
265.96	-0.000
266.17	-0.000
266.38	-0.000
266.59	-0.000
266.81	-0.000
267.02	-0.000
267.23	-0.000
267.44	-0.000
267.65	-0.000
267.87	-0.000
268.08	-0.000
268.29	-0.000
268.50	-0.000
268.72	-0.000
268.93	-0.000
269.14	-0.000
269.35	-0.000
269.57	-0.000
269.78	-0.000
269.99	-0.000
270.20	-0.000
270.41	-0.000
270.63	-0.000
270.84	-0.000
271.05	-0.000
271.26	-0.000
271.48	-0.000
271.69	-0.000
271.90	-0.000
272.11	-0.000
272.32	-0.000
272.54	-0.000
272.75	-0.000
272.96	-0.000
273.17	-0.000
273.39	-0.000
273.60	-0.000
273.81	-0.000
274.02	-0.000
274.23	-0.000
274.45	-0.000
274.66	-0.000
274.87	-0.000
275.08	-0.000
275.29	-0.000
275.51	-0.000
275.72	-0.000
275.93	-0.000
276.14	-0.000
276.35	-0.000
276.57	-0.000
276.78	-0.000
276.99	-0.000
277.20	-0.000
277.41	-0.000
277.63	-0.000
277.84	-0.000
278.05	-0.000
278.26	-0.000
278.47	-0.000
278.69	-0.000
278.90	-0.000
279.11	-0.000
279.32	-0.000
279.53	-0.000
279.74	-0.000
279.96	-0.000
280.17	-0.000
280.38	-0.000
280.59	-0.000
280.80	-0.000
281.02	-0.000
281.23	-0.000
281.44	-0.000
281.65	-0.000
281.86	-0.000
282.07	-0.000
282.29	-0.000
282.50	-0.000
282.71	-0.000
282.92	-0.000
283.13	-0.000
283.35	-0.000
283.56	-0.000
283.77	-0.000
283.98	-0.000
284.19	-0.000
284.40	-0.000
284.62	-0.000
284.83	-0.000
285.04	-0.000
285.25	-0.000
285.46	-0.000
285.67	-0.000
285.88	-0.000
286.10	-0.000
286.31	-0.000
286.52	-0.000
286.73	-0.000
286.94	-0.000
287.15	-0.000
287.37	-0.000
287.58	-0.000
287.79	-0.000
288.00	-0.000
288.21	-0.000
288.42	-0.000
288.63	-0.000
288.85	-0.000
289.06	-0.000
289.27	-0.000
289.48	-0.000
289.69	-0.000
289.90	-0.000
290.11	-0.000
290.33	-0.000
290.54	-0.000
290.75	-0.000
290.96	-0.000
291.17	-0.000
291.38	-0.000
291.59	-0.000
291.81	-0.000
292.02	-0.000
292.23	-0.000
292.44	-0.000
292.65	-0.000
292.86	-0.000
293.07	-0.000
293.28	-0.000
293.50	-0.000
293.71	-0.000
293.92	-0.000
294.13	-0.000
294.34	-0.000
294.55	-0.000
294.76	-0.000
294.97	-0.000
295.19	-0.000
295.40	-0.000
295.61	-0.000
295.82	-0.000
296.03	-0.000
296.24	-0.000
296.45	-0.000
296.66	-0.000
296.87	-0.000
297.09	-0.000
297.30	-0.000
297.51	-0.000
297.72	-0.000
297.93	-0.000
298.14	-0.000
298.35	-0.000
298.56	-0.000
298.77	-0.000
298.99	-0.000
299.20	-0.000
299.41	-0.000
299.62	-0.000
299.83	-0.000
300.04	-0.000
300.25	-0.000
300.46	-0.000
300.67	-0.000
300.88	-0.000
301.10	-0.000
301.31	-0.000
301.52	-0.000
301.73	-0.000
301.94	-0.000
302.15	-0.000
302.36	-0.000
302.57	-0.000
302.78	-0.000
302.99	-0.000
303.20	-0.000
303.41	-0.000
303.63	-0.000
303.84	-0.000
304.05	-0.000
304.26	-0.000
304.47	-0.000
304.68	-0.000
304.89	-0.000
305.10	-0.000
305.31	-0.000
305.52	-0.000
305.73	-0.000
305.94	-0.000
306.15	-0.000
306.37	-0.000
306.58	-0.000
306.79	-0.000
307.00	-0.000
307.21	-0.000
307.42	-0.000
307.63	-0.000
307.84	-0.000
308.05	-0.000
308.26	-0.000
308.47	-0.000
308.68	-0.000
308.89	-0.000
309.10	-0.000
309.31	-0.000
309.52	-0.000
309.73	-0.000
309.95	-0.000
310.16	-0.000
310.37	-0.000
310.58	-0.000
310.79	-0.000
311.00	-0.000
311.21	-0.000
311.42	-0.000
311.63	-0.000
311.84	-0.000
312.05	-0.000
312.26	-0.000
312.47	-0.000
312.68	-0.000
312.89	-0.000
313.10	-0.000
313.31	-0.000
313.52	-0.000
313.73	-0.000
313.94	-0.000
314.15	-0.000
314.36	-0.000
314.57	-0.000
314.78	-0.000
314.99	-0.000
315.21	-0.000
315.42	-0.000
315.63	-0.000
315.84	-0.000
316.05	-0.000
316.26	-0.000
316.47	-0.000
316.68	-0.000
316.89	-0.000
317.10	-0.000
317.31	-0.000
317.52	-0.000
317.73	-0.000
317.94	-0.000
318.15	-0.000
318.36	-0.000
318.57	-0.000
318.78	-0.000
318.99	-0.000
319.20	-0.000
319.41	-0.000
319.62	-0.000
319.83	-0.000
320.04	-0.000
320.25	-0.000
320.46	-0.000
320.67	-0.000
320.88	-0.000
321.09	-0.000
321.30	-0.000
321.51	-0.000
321.72	-0.000
321.93	-0.000
322.14	-0.000
322.35	-0.000
322.56	-0.000
322.77	-0.000
322.98	-0.000
323.19	-0.000
323.40	-0.000
323.61	-0.000
323.82	-0.000
324.03	-0.000
324.24	-0.000
324.45	-0.000
324.66	-0.000
324.87	-0.000
325.08	-0.000
325.29	-0.000
325.50	-0.000
325.71	-0.000
325.92	-0.000
326.13	-0.000
326.34	-0.000
326.55	-0.000
326.76	-0.000
326.97	-0.000
327.18	-0.000
327.39	-0.000
327.60	-0.000
327.80	-0.000
328.01	-0.000
328.22	-0.000
328.43	-0.000
328.64	-0.000
328.85	-0.000
329.06	-0.000
329.27	-0.000
329.48	-0.000
329.69	-0.000
329.90	-0.000
330.11	-0.000
330.32	-0.000
330.53	-0.000
330.74	-0.000
330.95	-0.000
331.16	3.156
331.37	-0.000
331.58	-0.000
331.79	-0.000
332.00	-0.000
332.21	2.949
332.42	3.072
332.63	2.590
332.83	2.584
333.04	2.874
333.25	-0.000
333.46	-0.000
333.67	2.775
333.88	2.950
334.09	-0.000
334.30	-0.000
334.51	3.169
334.72	2.924
334.93	2.971
335.14	2.799
335.35	2.501
335.56	2.375
335.77	2.580
335.98	2.639
336.18	2.503
336.39	2.286
336.60	2.331
336.81	2.324
337.02	2.350
337.23	2.559
337.44	2.686
337.65	2.997
337.86	2.537
338.07	2.386
338.28	2.441
338.49	2.440
338.70	2.302
338.91	2.540
339.11	2.846
339.32	2.664
339.53	2.347
339.74	2.323
339.95	2.208
340.16	2.223
340.37	2.147
340.58	2.130
340.79	2.136
341.00	2.167
341.21	2.040
341.41	2.072
341.62	2.088
341.83	2.098
342.04	2.050
342.25	2.287
342.46	2.326
342.67	2.326
342.88	2.236
343.09	2.288
343.30	2.462
343.50	2.701
343.71	2.370
343.92	2.342
344.13	2.464
344.34	2.458
344.55	2.096
344.76	2.111
344.97	2.172
345.18	2.183
345.38	2.162
345.59	2.099
345.80	2.064
346.01	2.070
346.22	2.056
346.43	1.989
346.64	2.097
346.85	2.122
347.06	2.046
347.26	2.042
347.47	2.084
347.68	2.036
347.89	2.005
348.10	1.957
348.31	2.021
348.52	2.012
348.73	2.003
348.93	1.984
349.14	1.994
349.35	2.001
349.56	1.957
349.77	1.917
349.98	1.982
350.19	1.956
350.39	1.924
350.60	1.888
350.81	2.093
351.02	2.088
351.23	2.044
351.44	2.085
351.65	2.103
351.86	2.095
352.06	2.082
352.27	2.082
352.48	2.097
352.69	2.104
352.90	2.039
353.11	1.877
353.31	1.971
353.52	1.939
353.73	1.877
353.94	1.920
354.15	1.968
354.36	1.974
354.57	1.895
354.77	1.922
354.98	1.913
355.19	1.922
355.40	1.926
355.61	2.011
355.82	2.042
356.02	2.046
356.23	1.962
356.44	1.985
356.65	2.022
356.86	2.030
357.07	1.972
357.27	2.009
357.48	2.027
357.69	1.972
357.90	1.803
358.11	1.780
358.32	1.802
358.52	1.826
358.73	1.759
358.94	1.779
359.15	1.824
359.36	1.825
359.56	1.798
359.77	1.781
359.98	1.846
360.19	1.851
360.40	1.842
360.61	1.867
360.81	1.846
361.02	1.850
361.23	1.786
361.44	1.768
361.65	1.775
361.85	1.776
362.06	1.770
362.27	1.792
362.48	1.789
362.69	1.806
362.89	1.757
363.10	1.781
363.31	1.825
363.52	1.866
363.73	1.821
363.93	1.829
364.14	1.833
364.35	1.848
364.56	1.767
364.77	1.782
364.97	1.790
365.18	1.794
365.39	1.761
365.60	1.732
365.81	1.735
366.01	1.744
366.22	1.721
366.43	1.723
366.64	1.728
366.84	1.780
367.05	1.766
367.26	1.769
367.47	1.779
367.68	1.777
367.88	1.766
368.09	1.744
368.30	1.759
368.51	1.764
368.71	1.762
368.92	1.813
369.13	1.789
369.34	1.786
369.55	1.790
369.75	1.791
369.96	1.854
370.17	1.857
370.38	1.849
370.58	1.844
370.79	1.888
371.00	1.879
371.21	1.794
371.41	1.848
371.62	1.878
371.83	1.838
372.04	1.823
372.24	1.762
372.45	1.764
372.66	1.763
372.87	1.755
373.07	1.729
373.28	1.733
373.49	1.771
373.70	1.698
373.90	1.694
374.11	1.763
374.32	1.763
374.53	1.767
374.73	1.782
374.94	1.794
375.15	1.791
375.36	1.774
375.56	1.873
375.77	1.855
375.98	1.850
376.19	1.830
376.39	1.769
376.60	1.792
376.81	1.792
377.02	1.776
377.22	1.775
377.43	1.769
377.64	1.773
377.84	1.691
378.05	1.733
378.26	1.785
378.47	1.781
378.67	1.759
378.88	1.747
379.09	1.743
379.30	1.739
379.50	1.726
379.71	1.746
379.92	1.761
380.12	1.769
380.33	1.711
380.54	1.683
380.75	1.739
380.95	1.741
381.16	1.734
381.37	1.741
381.57	1.757
381.78	1.762
381.99	1.765
382.20	1.763
382.40	1.787
382.61	1.786
382.82	1.768
383.02	1.721
383.23	1.746
383.44	1.747
383.64	1.741
383.85	1.761
384.06	1.783
384.27	1.761
384.47	1.758
384.68	1.752
384.89	1.793
385.09	1.798
385.30	1.789
385.51	1.782
385.71	1.802
385.92	1.803
386.13	1.797
386.33	1.828
386.54	1.829
386.75	1.815
386.95	1.792
387.16	1.754
387.37	1.766
387.58	1.764
387.78	1.751
387.99	1.736
388.20	1.742
388.40	1.715
388.61	1.677
388.82	1.711
389.02	1.721
389.23	1.719
389.44	1.714
389.64	1.717
389.85	1.824
390.06	1.818
390.26	1.824
390.47	1.821
390.68	1.844
390.88	1.833
391.09	1.786
391.30	1.788
391.50	1.784
391.71	1.785
391.92	1.760
392.12	1.682
392.33	1.681
392.53	1.682
392.74	1.694
392.95	1.681
393.15	1.696
393.36	1.710
393.57	1.698
393.77	1.716
393.98	1.725
394.19	1.729
394.39	1.733
394.60	1.745
394.81	1.752
395.01	1.730
395.22	1.724
395.43	1.727
395.63	1.763
395.84	1.770
396.04	1.753
396.25	1.762
396.46	1.767
396.66	1.747
396.87	1.726
397.08	1.703
397.28	1.717
397.49	1.726
397.69	1.706
397.90	1.663
398.11	1.665
398.31	1.663
398.52	1.639
398.73	1.657
398.93	1.645
399.14	1.640
399.34	1.636
399.55	1.643
399.76	1.643
399.96	1.646
400.17	1.642
400.37	1.635
400.58	1.686
400.79	1.703
400.99	1.678
401.20	1.725
401.41	1.739
401.61	1.740
401.82	1.801
402.02	1.795
402.23	1.796
402.44	1.793
402.64	1.794
402.85	1.732
403.05	1.716
403.26	1.706
403.47	1.660
403.67	1.654
403.88	1.655
404.08	1.604
404.29	1.596
404.50	1.598
404.70	1.595
404.91	1.591
405.11	1.578
405.32	1.581
405.52	1.581
405.73	1.581
405.94	1.573
406.14	1.592
406.35	1.602
406.55	1.599
406.76	1.586
406.97	1.591
407.17	1.605
407.38	1.602
407.58	1.595
407.79	1.609
407.99	1.619
408.20	1.623
408.41	1.596
408.61	1.588
408.82	1.588
409.02	1.587
409.23	1.580
409.43	1.568
409.64	1.569
409.84	1.568
410.05	1.549
410.26	1.540
410.46	1.536
410.67	1.537
410.87	1.546
411.08	1.558
411.28	1.560
411.49	1.569
411.69	1.558
411.90	1.572
412.11	1.577
412.31	1.583
412.52	1.576
412.72	1.582
412.93	1.580
413.13	1.578
413.34	1.559
413.54	1.573
413.75	1.582
413.95	1.583
414.16	1.564
414.37	1.580
414.57	1.579
414.78	1.595
414.98	1.588
415.19	1.596
415.39	1.568
415.60	1.583
415.80	1.578
416.01	1.561
416.21	1.567
416.42	1.568
416.62	1.540
416.83	1.539
417.03	1.531
417.24	1.529
417.44	1.516
417.65	1.513
417.86	1.508
418.06	1.495
418.27	1.486
418.47	1.495
418.68	1.494
418.88	1.494
419.09	1.490
419.29	1.495
419.50	1.496
419.70	1.496
419.91	1.493
420.11	1.484
420.32	1.493
420.52	1.493
420.73	1.490
420.93	1.494
421.14	1.507
421.34	1.501
421.55	1.487
421.75	1.486
421.96	1.489
422.16	1.491
422.37	1.487
422.57	1.474
422.78	1.479
422.98	1.465
423.19	1.457
423.39	1.445
423.60	1.462
423.80	1.467
424.01	1.462
424.21	1.473
424.42	1.474
424.62	1.473
424.83	1.471
425.03	1.470
425.23	1.475
425.44	1.474
425.64	1.479
425.85	1.469
426.05	1.469
426.26	1.471
426.46	1.454
426.67	1.451
426.87	1.473
427.08	1.474
427.28	1.466
427.49	1.471
427.69	1.472
427.90	1.465
428.10	1.455
428.31	1.456
428.51	1.464
428.71	1.460
428.92	1.467
429.12	1.452
429.33	1.453
429.53	1.476
429.74	1.506
429.94	1.510
430.15	1.507
430.35	1.505
430.56	1.492
430.76	1.486
430.96	1.491
431.17	1.477
431.37	1.467
431.58	1.460
431.78	1.441
431.99	1.404
432.19	1.416
432.40	1.425
432.60	1.427
432.80	1.438
433.01	1.432
433.21	1.430
433.42	1.435
433.62	1.436
433.83	1.436
434.03	1.448
434.23	1.459
434.44	1.449
434.64	1.438
434.85	1.464
435.05	1.470
435.26	1.471
435.46	1.468
435.66	1.469
435.87	1.467
436.07	1.469
436.28	1.450
436.48	1.438
436.69	1.435
436.89	1.438
437.09	1.407
437.30	1.401
437.50	1.399
437.71	1.464
437.91	1.459
438.11	1.464
438.32	1.482
438.52	1.482
438.73	1.481
438.93	1.472
439.13	1.470
439.34	1.491
439.54	1.479
439.75	1.482
439.95	1.423
440.15	1.449
440.36	1.445
440.56	1.432
440.77	1.437
440.97	1.437
441.17	1.431
441.38	1.437
441.58	1.420
441.79	1.419
441.99	1.415
442.19	1.404
442.40	1.388
442.60	1.386
442.81	1.379
443.01	1.377
443.21	1.376
443.42	1.377
443.62	1.372
443.82	1.371
444.03	1.378
444.23	1.378
444.44	1.383
444.64	1.381
444.84	1.388
445.05	1.388
445.25	1.381
445.45	1.382
445.66	1.389
445.86	1.386
446.06	1.396
446.27	1.390
446.47	1.402
446.68	1.394
446.88	1.389
447.08	1.384
447.29	1.388
447.49	1.389
447.69	1.388
447.90	1.383
448.10	1.397
448.30	1.383
448.51	1.393
448.71	1.383
448.91	1.390
449.12	1.385
449.32	1.395
449.52	1.390
449.73	1.404
449.93	1.400
450.14	1.406
450.34	1.401
450.54	1.409
450.75	1.396
450.95	1.393
451.15	1.392
451.36	1.403
451.56	1.387
451.76	1.387
451.97	1.376
452.17	1.375
452.37	1.367
452.58	1.357
452.78	1.356
452.98	1.366
453.19	1.367
453.39	1.373
453.59	1.365
453.79	1.368
454.00	1.369
454.20	1.366
454.40	1.371
454.61	1.379
454.81	1.382
455.01	1.378
455.22	1.381
455.42	1.384
455.62	1.373
455.83	1.370
456.03	1.383
456.23	1.383
456.44	1.385
456.64	1.380
456.84	1.378
457.04	1.378
457.25	1.377
457.45	1.365
457.65	1.363
457.86	1.367
458.06	1.366
458.26	1.352
458.47	1.351
458.67	1.356
458.87	1.356
459.07	1.349
459.28	1.353
459.48	1.359
459.68	1.359
459.89	1.354
460.09	1.348
460.29	1.352
460.49	1.356
460.70	1.355
460.90	1.354
461.10	1.355
461.31	1.357
461.51	1.349
461.71	1.359
461.91	1.359
462.12	1.364
462.32	1.363
462.52	1.361
462.72	1.367
462.93	1.367
463.13	1.361
463.33	1.366
463.53	1.366
463.74	1.365
463.94	1.345
464.14	1.351
464.35	1.354
464.55	1.354
464.75	1.353
464.95	1.347
465.16	1.350
465.36	1.348
465.56	1.344
465.76	1.343
465.97	1.346
466.17	1.348
466.37	1.339
466.57	1.341
466.78	1.343
466.98	1.342
467.18	1.335
467.38	1.331
467.59	1.334
467.79	1.343
467.99	1.341
468.19	1.341
468.39	1.351
468.60	1.350
468.80	1.343
469.00	1.347
469.20	1.351
469.41	1.353
469.61	1.353
469.81	1.355
470.01	1.351
470.22	1.350
470.42	1.347
470.62	1.339
470.82	1.342
471.02	1.344
471.23	1.336
471.43	1.336
471.63	1.345
471.83	1.342
472.04	1.337
472.24	1.329
472.44	1.350
472.64	1.350
472.84	1.343
473.05	1.341
473.25	1.347
473.45	1.344
473.65	1.339
473.85	1.336
474.06	1.338
474.26	1.336
474.46	1.345
474.66	1.330
474.86	1.331
475.07	1.332
475.27	1.330
475.47	1.323
475.67	1.322
475.87	1.331
476.08	1.323
476.28	1.330
476.48	1.336
476.68	1.328
476.88	1.322
477.09	1.324
477.29	1.329
477.49	1.328
477.69	1.325
477.89	1.327
478.09	1.321
478.30	1.330
478.50	1.320
478.70	1.315
478.90	1.317
479.10	1.326
479.31	1.333
479.51	1.326
479.71	1.325
479.91	1.325
480.11	1.320
480.31	1.321
480.52	1.313
480.72	1.312
480.92	1.310
481.12	1.305
481.32	1.295
481.52	1.287
481.72	1.288
481.93	1.301
482.13	1.303
482.33	1.303
482.53	1.296
482.73	1.300
482.93	1.304
483.14	1.303
483.34	1.300
483.54	1.305
483.74	1.301
483.94	1.298
484.14	1.283
484.34	1.283
484.55	1.283
484.75	1.284
484.95	1.278
485.15	1.277
485.35	1.276
485.55	1.277
485.75	1.270
485.96	1.272
486.16	1.276
486.36	1.276
486.56	1.271
486.76	1.273
486.96	1.275
487.16	1.274
487.36	1.269
487.57	1.268
487.77	1.269
487.97	1.271
488.17	1.266
488.37	1.265
488.57	1.264
488.77	1.266
488.97	1.261
489.18	1.256
489.38	1.264
489.58	1.264
489.78	1.265
489.98	1.263
490.18	1.262
490.38	1.263
490.58	1.260
490.78	1.263
490.98	1.266
491.19	1.267
491.39	1.267
491.59	1.261
491.79	1.272
491.99	1.270
492.19	1.270
492.39	1.280
492.59	1.280
492.79	1.288
492.99	1.289
493.20	1.289
493.40	1.289
493.60	1.295
493.80	1.292
494.00	1.283
494.20	1.283
494.40	1.281
494.60	1.274
494.80	1.289
495.00	1.282
495.20	1.278
495.40	1.275
495.61	1.280
495.81	1.277
496.01	1.291
496.21	1.297
496.41	1.296
496.61	1.298
496.81	1.294
497.01	1.277
497.21	1.275
497.41	1.276
497.61	1.274
497.81	1.268
498.01	1.267
498.21	1.257
498.41	1.248
498.61	1.249
498.82	1.253
499.02	1.257
499.22	1.258
499.42	1.255
499.62	1.259
499.82	1.262
500.02	1.265
500.22	1.261
500.42	1.269
500.62	1.270
500.82	1.271
501.02	1.265
501.22	1.265
501.42	1.266
501.62	1.274
501.82	1.273
502.02	1.272
502.22	1.270
502.42	1.278
502.62	1.269
502.82	1.268
503.02	1.271
503.22	1.271
503.42	1.266
503.63	1.266
503.83	1.259
504.03	1.256
504.23	1.254
504.43	1.257
504.63	1.258
504.83	1.258
505.03	1.256
505.23	1.259
505.43	1.264
505.63	1.266
505.83	1.265
506.03	1.268
506.23	1.273
506.43	1.271
506.63	1.269
506.83	1.263
507.03	1.268
507.23	1.270
507.43	1.263
507.63	1.264
507.83	1.262
508.03	1.264
508.23	1.263
508.43	1.259
508.63	1.263
508.83	1.263
509.03	1.270
509.23	1.264
509.43	1.266
509.63	1.267
509.83	1.263
510.03	1.273
510.23	1.274
510.43	1.277
510.63	1.277
510.83	1.276
511.03	1.279
511.23	1.270
511.43	1.270
511.63	1.275
511.83	1.279
512.03	1.278
512.22	1.269
512.42	1.270
512.62	1.273
512.82	1.273
513.02	1.271
513.22	1.269
513.42	1.274
513.62	1.284
513.82	1.278
514.02	1.276
514.22	1.279
514.42	1.280
514.62	1.278
514.82	1.276
515.02	1.283
515.22	1.296
515.42	1.297
515.62	1.304
515.82	1.296
516.02	1.298
516.22	1.300
516.42	1.307
516.62	1.309
516.82	1.312
517.01	1.307
517.21	1.304
517.41	1.316
517.61	1.316
517.81	1.305
518.01	1.304
518.21	1.304
518.41	1.300
518.61	1.297
518.81	1.299
519.01	1.298
519.21	1.300
519.41	1.298
519.61	1.277
519.81	1.283
520.00	1.286
520.20	1.286
520.40	1.294
520.60	1.294
520.80	1.289
521.00	1.294
521.20	1.296
521.40	1.310
521.60	1.310
521.80	1.308
522.00	1.306
522.20	1.311
522.39	1.310
522.59	1.302
522.79	1.310
522.99	1.315
523.19	1.306
523.39	1.304
523.59	1.298
523.79	1.306
523.99	1.313
524.19	1.311
524.38	1.306
524.58	1.308
524.78	1.306
524.98	1.297
525.18	1.304
525.38	1.307
525.58	1.305
525.78	1.297
525.98	1.291
526.18	1.290
526.37	1.288
526.57	1.297
526.77	1.296
526.97	1.297
527.17	1.301
527.37	1.290
527.57	1.298
527.77	1.301
527.96	1.303
528.16	1.301
528.36	1.306
528.56	1.312
528.76	1.302
528.96	1.301
529.16	1.305
529.36	1.311
529.55	1.309
529.75	1.299
529.95	1.298
530.15	1.299
530.35	1.308
530.55	1.297
530.75	1.297
530.94	1.298
531.14	1.300
531.34	1.296
531.54	1.291
531.74	1.299
531.94	1.309
532.13	1.306
532.33	1.314
532.53	1.308
532.73	1.309
532.93	1.302
533.13	1.307
533.33	1.306
533.52	1.305
533.72	1.319
533.92	1.313
534.12	1.305
534.32	1.306
534.52	1.299
534.71	1.302
534.91	1.308
535.11	1.317
535.31	1.311
535.51	1.316
535.71	1.320
535.90	1.307
536.10	1.313
536.30	1.319
536.50	1.320
536.70	1.321
536.89	1.315
537.09	1.314
537.29	1.317
537.49	1.320
537.69	1.314
537.89	1.318
538.08	1.317
538.28	1.309
538.48	1.312
538.68	1.314
538.88	1.318
539.07	1.318
539.27	1.312
539.47	1.307
539.67	1.305
539.87	1.309
540.06	1.302
540.26	1.305
540.46	1.310
540.66	1.302
540.86	1.298
541.05	1.297
541.25	1.300
541.45	1.302
541.65	1.296
541.84	1.302
542.04	1.300
542.24	1.302
542.44	1.298
542.64	1.303
542.83	1.309
543.03	1.309
543.23	1.303
543.43	1.304
543.62	1.308
543.82	1.310
544.02	1.308
544.22	1.308
544.42	1.317
544.61	1.319
544.81	1.310
545.01	1.305
545.21	1.310
545.40	1.309
545.60	1.304
545.80	1.314
546.00	1.312
546.19	1.309
546.39	1.307
546.59	1.298
546.79	1.301
546.98	1.302
547.18	1.302
547.38	1.304
547.58	1.312
547.77	1.313
547.97	1.300
548.17	1.305
548.37	1.307
548.56	1.308
548.76	1.307
548.96	1.309
549.16	1.312
549.35	1.313
549.55	1.305
549.75	1.303
549.95	1.313
550.14	1.313
550.34	1.307
550.54	1.324
550.73	1.332
550.93	1.336
551.13	1.329
551.33	1.326
551.52	1.326
551.72	1.327
551.92	1.322
552.12	1.327
552.31	1.329
552.51	1.331
552.71	1.313
552.90	1.313
553.10	1.313
553.30	1.313
553.50	1.313
553.69	1.315
553.89	1.316
554.09	1.317
554.28	1.304
554.48	1.307
554.68	1.311
554.87	1.312
555.07	1.304
555.27	1.306
555.47	1.309
555.66	1.309
555.86	1.308
556.06	1.315
556.25	1.319
556.45	1.351
556.65	1.349
556.84	1.361
557.04	1.372
557.24	1.374
557.43	1.374
557.63	1.385
557.83	1.388
558.02	1.390
558.22	1.410
558.42	1.406
558.61	1.371
558.81	1.370
559.01	1.355
559.21	1.351
559.40	1.352
559.60	1.354
559.80	1.339
559.99	1.343
560.19	1.348
560.39	1.326
560.58	1.324
560.78	1.327
560.97	1.339
561.17	1.337
561.37	1.332
561.56	1.334
561.76	1.338
561.96	1.340
562.15	1.335
562.35	1.345
562.55	1.345
562.74	1.345
562.94	1.341
563.14	1.331
563.33	1.332
563.53	1.332
563.73	1.325
563.92	1.329
564.12	1.332
564.31	1.337
564.51	1.329
564.71	1.336
564.90	1.339
565.10	1.340
565.30	1.357
565.49	1.360
565.69	1.368
565.89	1.371
566.08	1.362
566.28	1.370
566.47	1.373
566.67	1.366
566.87	1.358
567.06	1.369
567.26	1.395
567.46	1.376
567.65	1.370
567.85	1.371
568.04	1.380
568.24	1.377
568.44	1.365
568.63	1.358
568.83	1.363
569.02	1.359
569.22	1.343
569.42	1.329
569.61	1.336
569.81	1.333
570.00	1.328
570.20	1.334
570.40	1.337
570.59	1.339
570.79	1.334
570.98	1.328
571.18	1.330
571.38	1.329
571.57	1.319
571.77	1.312
571.96	1.324
572.16	1.318
572.35	1.301
572.55	1.307
572.75	1.300
572.94	1.300
573.14	1.296
573.33	1.297
573.53	1.296
573.73	1.295
573.92	1.291
574.12	1.284
574.31	1.291
574.51	1.294
574.70	1.282
574.90	1.286
575.09	1.293
575.29	1.293
575.49	1.286
575.68	1.291
575.88	1.294
576.07	1.300
576.27	1.294
576.46	1.289
576.66	1.286
576.86	1.286
577.05	1.281
577.25	1.276
577.44	1.282
577.64	1.281
577.83	1.274
578.03	1.277
578.22	1.272
578.42	1.270
578.61	1.265
578.81	1.269
579.00	1.268
579.20	1.268
579.40	1.265
579.59	1.262
579.79	1.264
579.98	1.263
580.18	1.265
580.37	1.267
580.57	1.275
580.76	1.293
580.96	1.288
581.15	1.292
581.35	1.295
581.54	1.293
581.74	1.290
581.93	1.296
582.13	1.297
582.32	1.287
582.52	1.281
582.71	1.277
582.91	1.261
583.10	1.262
583.30	1.258
583.49	1.256
583.69	1.268
583.88	1.274
584.08	1.269
584.27	1.276
584.47	1.285
584.66	1.288
584.86	1.285
585.05	1.290
585.25	1.296
585.44	1.297
585.64	1.295
585.83	1.286
586.03	1.287
586.22	1.284
586.42	1.274
586.61	1.282
586.81	1.291
587.00	1.290
587.20	1.284
587.39	1.285
587.59	1.290
587.78	1.291
587.98	1.292
588.17	1.295
588.37	1.300
588.56	1.304
588.76	1.288
588.95	1.285
589.15	1.300
589.34	1.310
589.54	1.307
589.73	1.308
589.92	1.315
590.12	1.312
590.31	1.305
590.51	1.325
590.70	1.328
590.90	1.331
591.09	1.325
591.29	1.314
591.48	1.310
591.68	1.313
591.87	1.308
592.06	1.308
592.26	1.318
592.45	1.315
592.65	1.293
592.84	1.293
593.04	1.300
593.23	1.308
593.43	1.304
593.62	1.303
593.81	1.305
594.01	1.306
594.20	1.301
594.40	1.296
594.59	1.301
594.79	1.305
594.98	1.302
595.17	1.297
595.37	1.298
595.56	1.301
595.76	1.302
595.95	1.305
596.14	1.311
596.34	1.312
596.53	1.307
596.73	1.311
596.92	1.310
597.12	1.318
597.31	1.319
597.50	1.316
597.70	1.324
597.89	1.319
598.09	1.309
598.28	1.315
598.47	1.324
598.67	1.320
598.86	1.311
599.06	1.322
599.25	1.322
599.44	1.318
599.64	1.312
599.83	1.305
600.03	1.316
600.22	1.318
600.41	1.321
600.61	1.312
600.80	1.318
601.00	1.319
601.19	1.306
601.38	1.300
601.58	1.304
601.77	1.308
601.96	1.315
602.16	1.311
602.35	1.343
602.55	1.332
602.74	1.335
602.93	1.339
603.13	1.353
603.32	1.355
603.51	1.356
603.71	1.370
603.90	1.370
604.09	1.373
604.29	1.366
604.48	1.342
604.68	1.346
604.87	1.341
605.06	1.332
605.26	1.322
605.45	1.322
605.64	1.319
605.84	1.303
606.03	1.303
606.22	1.297
606.42	1.296
606.61	1.288
606.80	1.288
607.00	1.296
607.19	1.297
607.38	1.296
607.58	1.305
607.77	1.310
607.96	1.311
608.16	1.309
608.35	1.328
608.54	1.339
608.74	1.349
608.93	1.373
609.12	1.381
609.32	1.387
609.51	1.398
609.70	1.390
609.90	1.397
610.09	1.410
610.28	1.429
610.48	1.399
610.67	1.403
610.86	1.404
611.06	1.377
611.25	1.367
611.44	1.372
611.64	1.370
611.83	1.384
612.02	1.377
612.21	1.370
612.41	1.362
612.60	1.362
612.79	1.349
612.99	1.351
613.18	1.358
613.37	1.353
613.57	1.347
613.76	1.352
613.95	1.339
614.14	1.337
614.34	1.332
614.53	1.335
614.72	1.344
614.92	1.344
615.11	1.336
615.30	1.326
615.49	1.331
615.69	1.340
615.88	1.330
616.07	1.335
616.26	1.342
616.46	1.346
616.65	1.336
616.84	1.330
617.04	1.333
617.23	1.341
617.42	1.341
617.61	1.349
617.81	1.344
618.00	1.349
618.19	1.343
618.38	1.355
618.58	1.364
618.77	1.368
618.96	1.368
619.15	1.374
619.35	1.380
619.54	1.383
619.73	1.371
619.92	1.380
620.12	1.393
620.31	1.399
620.50	1.380
620.69	1.380
620.89	1.390
621.08	1.392
621.27	1.395
621.46	1.389
621.66	1.404
621.85	1.403
622.04	1.393
622.23	1.399
622.43	1.399
622.62	1.399
622.81	1.400
623.00	1.400
623.19	1.410
623.39	1.403
623.58	1.393
623.77	1.390
623.96	1.399
624.16	1.401
624.35	1.381
624.54	1.393
624.73	1.406
624.92	1.398
625.12	1.388
625.31	1.389
625.50	1.398
625.69	1.402
625.88	1.391
626.08	1.389
626.27	1.389
626.46	1.389
626.65	1.376
626.84	1.377
627.04	1.389
627.23	1.387
627.42	1.375
627.61	1.384
627.80	1.390
628.00	1.393
628.19	1.387
628.38	1.397
628.57	1.405
628.76	1.404
628.96	1.393
629.15	1.396
629.34	1.408
629.53	1.409
629.72	1.388
629.91	1.392
630.11	1.403
630.30	1.403
630.49	1.420
630.68	1.423
630.87	1.430
631.06	1.438
631.26	1.422
631.45	1.424
631.64	1.454
631.83	1.465
632.02	1.456
632.21	1.445
632.41	1.473
632.60	1.443
632.79	1.438
632.98	1.445
633.17	1.447
633.36	1.454
633.55	1.443
633.75	1.430
633.94	1.428
634.13	1.431
634.32	1.426
634.51	1.404
634.70	1.411
634.89	1.413
635.09	1.401
635.28	1.402
635.47	1.401
635.66	1.414
635.85	1.401
636.04	1.409
636.23	1.425
636.43	1.433
636.62	1.434
636.81	1.432
637.00	1.432
637.19	1.446
637.38	1.438
637.57	1.444
637.76	1.453
637.95	1.455
638.15	1.444
638.34	1.429
638.53	1.435
638.72	1.439
638.91	1.428
639.10	1.425
639.29	1.418
639.48	1.422
639.67	1.420
639.87	1.415
640.06	1.440
640.25	1.440
640.44	1.446
640.63	1.452
640.82	1.460
641.01	1.464
641.20	1.468
641.39	1.482
641.58	1.488
641.78	1.485
641.97	1.468
642.16	1.541
642.35	1.538
642.54	1.536
642.73	1.515
642.92	1.509
643.11	1.521
643.30	1.516
643.49	1.495
643.68	1.503
643.87	1.501
644.06	1.501
644.25	1.408
644.45	1.427
644.64	1.428
644.83	1.429
645.02	1.425
645.21	1.423
645.40	1.426
645.59	1.426
645.78	1.409
645.97	1.422
646.16	1.421
646.35	1.418
646.54	1.410
646.73	1.417
646.92	1.424
647.11	1.420
647.30	1.409
647.49	1.418
647.68	1.416
647.88	1.413
648.07	1.393
648.26	1.412
648.45	1.416
648.64	1.408
648.83	1.400
649.02	1.411
649.21	1.459
649.40	1.454
649.59	1.434
649.78	1.440
649.97	1.512
650.16	1.508
650.35	1.480
650.54	1.501
650.73	1.540
650.92	1.525
651.11	1.496
651.30	1.481
651.49	1.497
651.68	1.504
651.87	1.492
652.06	1.436
652.25	1.445
652.44	1.451
652.63	1.431
652.82	1.429
653.01	1.429
653.20	1.425
653.39	1.384
653.58	1.382
653.77	1.381
653.96	1.367
654.15	1.344
654.34	1.344
654.53	1.337
654.72	1.322
654.91	1.294
655.10	1.283
655.29	1.277
655.48	1.271
655.67	1.256
655.86	1.249
656.05	1.247
656.24	1.246
656.43	1.234
656.62	1.235
656.81	1.241
657.00	1.237
657.19	1.232
657.38	1.235
657.57	1.235
657.76	1.244
657.95	1.240
658.14	1.252
658.33	1.261
658.51	1.275
658.70	1.270
658.89	1.266
659.08	1.290
659.27	1.311
659.46	1.307
659.65	1.326
659.84	1.335
660.03	1.346
660.22	1.347
660.41	1.362
660.60	1.358
660.79	1.365
660.98	1.391
661.17	1.382
661.36	1.376
661.55	1.384
661.74	1.374
661.92	1.384
662.11	1.391
662.30	1.383
662.49	1.358
662.68	1.356
662.87	1.359
663.06	1.335
663.25	1.342
663.44	1.342
663.63	1.342
663.82	1.340
664.01	1.321
664.20	1.315
664.38	1.320
664.57	1.323
664.76	1.325
664.95	1.334
665.14	1.349
665.33	1.340
665.52	1.379
665.71	1.406
665.90	1.408
666.09	1.419
666.28	1.416
666.46	1.407
666.65	1.410
666.84	1.402
667.03	1.383
667.22	1.381
667.41	1.389
667.60	1.344
667.79	1.314
667.98	1.318
668.16	1.319
668.35	1.318
668.54	1.314
668.73	1.318
668.92	1.322
669.11	1.321
669.30	1.302
669.49	1.290
669.67	1.301
669.86	1.312
670.05	1.303
670.24	1.295
670.43	1.291
670.62	1.287
670.81	1.274
671.00	1.276
671.18	1.273
671.37	1.272
671.56	1.267
671.75	1.260
671.94	1.250
672.13	1.247
672.32	1.236
672.50	1.235
672.69	1.235
672.88	1.239
673.07	1.229
673.26	1.237
673.45	1.240
673.63	1.240
673.82	1.233
674.01	1.238
674.20	1.236
674.39	1.235
674.58	1.234
674.76	1.237
674.95	1.232
675.14	1.231
675.33	1.218
675.52	1.217
675.71	1.219
675.89	1.218
676.08	1.209
676.27	1.209
676.46	1.212
676.65	1.210
676.84	1.210
677.02	1.213
677.21	1.217
677.40	1.216
677.59	1.212
677.78	1.212
677.96	1.219
678.15	1.219
678.34	1.216
678.53	1.219
678.72	1.218
678.90	1.210
679.09	1.204
679.28	1.200
679.47	1.199
679.66	1.197
679.84	1.193
680.03	1.185
680.22	1.185
680.41	1.192
680.60	1.183
680.78	1.183
680.97	1.188
681.16	1.188
681.35	1.184
681.53	1.183
681.72	1.185
681.91	1.191
682.10	1.187
682.29	1.191
682.47	1.183
682.66	1.178
682.85	1.175
683.04	1.173
683.22	1.172
683.41	1.180
683.60	1.178
683.79	1.183
683.97	1.178
684.16	1.177
684.35	1.168
684.54	1.173
684.72	1.178
684.91	1.182
685.10	1.176
685.29	1.180
685.47	1.171
685.66	1.170
685.85	1.161
686.04	1.161
686.22	1.166
686.41	1.177
686.60	1.170
686.79	1.181
686.97	1.183
687.16	1.190
687.35	1.184
687.54	1.195
687.72	1.205
687.91	1.206
688.10	1.214
688.29	1.216
688.47	1.205
688.66	1.207
688.85	1.195
689.03	1.189
689.22	1.205
689.41	1.205
689.60	1.192
689.78	1.184
689.97	1.185
690.16	1.177
690.34	1.167
690.53	1.170
690.72	1.169
690.91	1.165
691.09	1.161
691.28	1.144
691.47	1.143
691.65	1.142
691.84	1.137
692.03	1.136
692.21	1.131
692.40	1.132
692.59	1.126
692.77	1.124
692.96	1.126
693.15	1.127
693.34	1.122
693.52	1.119
693.71	1.119
693.90	1.122
694.08	1.127
694.27	1.130
694.46	1.162
694.64	1.165
694.83	1.166
695.02	1.165
695.20	1.164
695.39	1.164
695.58	1.166
695.76	1.169
695.95	1.165
696.14	1.160
696.32	1.154
696.51	1.122
696.70	1.122
696.88	1.125
697.07	1.123
697.26	1.126
697.44	1.129
697.63	1.125
697.81	1.120
698.00	1.122
698.19	1.119
698.37	1.120
698.56	1.119
698.75	1.118
698.93	1.115
699.12	1.115
699.31	1.115
699.49	1.112
699.68	1.114
699.87	1.123
700.05	1.122
700.24	1.121
700.42	1.123
700.61	1.123
700.80	1.118
700.98	1.121
701.17	1.122
701.36	1.121
701.54	1.120
701.73	1.124
701.91	1.117
702.10	1.116
702.29	1.114
702.47	1.112
702.66	1.118
702.84	1.124
703.03	1.119
703.22	1.126
703.40	1.123
703.59	1.132
703.77	1.132
703.96	1.132
704.15	1.133
704.33	1.133
704.52	1.132
704.70	1.127
704.89	1.123
705.08	1.121
705.26	1.111
705.45	1.111
705.63	1.108
705.82	1.100
706.00	1.098
706.19	1.098
706.38	1.099
706.56	1.098
706.75	1.094
706.93	1.093
707.12	1.095
707.30	1.096
707.49	1.091
707.68	1.085
707.86	1.083
708.05	1.082
708.23	1.077
708.42	1.077
708.60	1.085
708.79	1.084
708.98	1.081
709.16	1.080
709.35	1.085
709.53	1.099
709.72	1.097
709.90	1.101
710.09	1.106
710.27	1.110
710.46	1.124
710.64	1.117
710.83	1.120
711.02	1.125
711.20	1.124
711.39	1.118
711.57	1.106
711.76	1.109
711.94	1.105
712.13	1.108
712.31	1.105
712.50	1.090
712.68	1.085
712.87	1.089
713.05	1.087
713.24	1.087
713.42	1.085
713.61	1.087
713.79	1.088
713.98	1.086
714.16	1.089
714.35	1.087
714.54	1.088
714.72	1.086
714.91	1.079
715.09	1.098
715.28	1.105
715.46	1.105
715.65	1.101
715.83	1.100
716.02	1.108
716.20	1.099
716.39	1.101
716.57	1.106
716.76	1.113
716.94	1.116
717.12	1.093
717.31	1.098
717.49	1.106
717.68	1.112
717.86	1.110
718.05	1.115
718.23	1.119
718.42	1.124
718.60	1.126
718.79	1.157
718.97	1.160
719.16	1.159
719.34	1.152
719.53	1.152
719.71	1.149
719.90	1.152
720.08	1.143
720.27	1.143
720.45	1.141
720.63	1.135
720.82	1.112
721.00	1.118
721.19	1.125
721.37	1.122
721.56	1.120
721.74	1.125
721.93	1.153
722.11	1.171
722.30	1.172
722.48	1.187
722.66	1.188
722.85	1.184
723.03	1.189
723.22	1.187
723.40	1.196
723.59	1.193
723.77	1.209
723.95	1.180
724.14	1.188
724.32	1.189
724.51	1.183
724.69	1.187
724.88	1.183
725.06	1.174
725.24	1.174
725.43	1.175
725.61	1.185
725.80	1.165
725.98	1.164
726.16	1.151
726.35	1.168
726.53	1.163
726.72	1.159
726.90	1.196
727.09	1.194
727.27	1.213
727.45	1.204
727.64	1.230
727.82	1.248
728.01	1.258
728.19	1.248
728.37	1.262
728.56	1.272
728.74	1.297
728.92	1.248
729.11	1.255
729.29	1.242
729.48	1.249
729.66	1.215
729.84	1.214
730.03	1.218
730.21	1.224
730.40	1.191
730.58	1.189
730.76	1.178
730.95	1.186
731.13	1.185
731.31	1.225
731.50	1.244
731.68	1.252
731.86	1.242
732.05	1.295
732.23	1.299
732.42	1.311
732.60	1.321
732.78	1.340
732.97	1.394
733.15	1.418
733.33	1.362
733.52	1.397
733.70	1.424
733.88	1.456
734.07	1.381
734.25	1.490
734.43	1.517
734.62	1.539
734.80	1.515
734.98	1.469
735.17	1.495
735.35	1.529
735.53	1.465
735.72	1.474
735.90	1.589
736.08	1.746
736.27	1.588
736.45	1.642
736.63	1.709
736.82	1.780
737.00	1.783
737.18	1.866
737.37	2.403
737.55	-0.000
737.73	-0.000
737.92	-0.000
738.10	2.987
738.28	-0.000
738.46	-0.000
738.65	-0.000
738.83	-0.000
739.01	-0.000
739.20	-0.000
739.38	-0.000
739.56	-0.000
739.75	-0.000
739.93	-0.000
740.11	-0.000
740.29	-0.000
740.48	-0.000
740.66	-0.000
740.84	-0.000
741.03	2.304
741.21	2.713
741.39	2.411
741.57	2.729
741.76	-0.000
741.94	-0.000
742.12	2.340
742.31	2.566
742.49	-0.000
742.67	-0.000
742.85	-0.000
743.04	-0.000
743.22	-0.000
743.40	-0.000
743.58	-0.000
743.77	-0.000
743.95	-0.000
744.13	-0.000
744.31	-0.000
744.50	-0.000
744.68	-0.000
744.86	-0.000
745.04	-0.000
745.23	-0.000
745.41	-0.000
745.59	-0.000
745.77	-0.000
745.96	-0.000
746.14	-0.000
746.32	-0.000
746.50	-0.000
746.69	-0.000
746.87	-0.000
747.05	-0.000
747.23	-0.000
747.42	-0.000
747.60	-0.000
747.78	-0.000
747.96	-0.000
748.14	-0.000
748.33	-0.000
748.51	-0.000
748.69	-0.000
748.87	-0.000
749.06	-0.000
749.24	-0.000
749.42	-0.000
749.60	-0.000
749.78	-0.000
749.97	-0.000
750.15	-0.000
750.33	-0.000
750.51	-0.000
750.69	-0.000
750.88	-0.000
751.06	-0.000
751.24	-0.000
751.42	-0.000
751.60	-0.000
751.79	-0.000
751.97	-0.000
752.15	-0.000
752.33	-0.000
752.51	-0.000
752.69	-0.000
752.88	-0.000
753.06	-0.000
753.24	-0.000
753.42	-0.000
753.60	-0.000
753.78	-0.000
753.97	-0.000
754.15	-0.000
754.33	-0.000
754.51	-0.000
754.69	-0.000
754.87	-0.000
755.06	-0.000
755.24	-0.000
755.42	-0.000
755.60	-0.000
755.78	-0.000
755.96	-0.000
756.15	-0.000
756.33	-0.000
756.51	-0.000
756.69	-0.000
756.87	-0.000
757.05	-0.000
757.23	-0.000
757.42	2.448
757.60	2.625
757.78	2.245
757.96	2.244
758.14	2.037
758.32	1.890
758.50	1.994
758.69	1.917
758.87	1.932
759.05	1.974
759.23	2.022
759.41	2.010
759.59	1.963
759.77	2.216
759.95	-0.000
760.13	-0.000
760.32	-0.000
760.50	-0.000
760.68	-0.000
760.86	-0.000
761.04	-0.000
761.22	-0.000
761.40	-0.000
761.58	-0.000
761.76	-0.000
761.95	-0.000
762.13	-0.000
762.31	-0.000
762.49	2.293
762.67	-0.000
762.85	-0.000
763.03	-0.000
763.21	-0.000
763.39	2.295
763.57	2.221
763.75	2.170
763.94	2.019
764.12	2.033
764.30	3.010
764.48	-0.000
764.66	1.989
764.84	1.939
765.02	2.773
765.20	4.586
765.38	2.296
765.56	2.554
765.74	-0.000
765.92	-0.000
766.10	-0.000
766.28	-0.000
766.46	-0.000
766.65	-0.000
766.83	-0.000
767.01	-0.000
767.19	-0.000
767.37	-0.000
767.55	-0.000
767.73	-0.000
767.91	-0.000
768.09	3.984
768.27	2.651
768.45	2.344
768.63	2.387
768.81	2.361
768.99	1.893
769.17	2.251
769.35	2.443
769.53	2.289
769.71	1.985
769.89	2.112
770.07	2.155
770.25	1.887
770.43	1.746
770.61	1.948
770.79	1.979
770.97	2.046
771.15	1.744
771.33	1.775
771.51	1.846
771.69	1.959
771.87	2.138
772.05	2.176
772.24	2.192
772.42	2.263
772.60	1.919
772.78	-0.000
772.96	-0.000
773.14	-0.000
773.32	-0.000
773.49	-0.000
773.67	-0.000
773.85	-0.000
774.03	-0.000
774.21	-0.000
774.39	-0.000
774.57	-0.000
774.75	-0.000
774.93	-0.000
775.11	-0.000
775.29	-0.000
775.47	-0.000
775.65	-0.000
775.83	-0.000
776.01	-0.000
776.19	-0.000
776.37	-0.000
776.55	-0.000
776.73	-0.000
776.91	-0.000
777.09	-0.000
777.27	-0.000
777.45	-0.000
777.63	2.865
777.81	2.756
777.99	2.080
778.17	2.066
778.35	1.852
778.53	1.723
778.71	1.735
778.89	1.641
779.07	1.618
779.24	1.635
779.42	1.618
779.60	1.764
779.78	1.734
779.96	1.772
780.14	1.823
780.32	2.101
780.50	1.883
780.68	1.890
780.86	1.775
781.04	1.934
781.22	2.010
781.40	2.147
781.58	1.880
781.75	1.772
781.93	1.698
782.11	1.679
782.29	1.558
782.47	1.568
782.65	1.524
782.83	1.712
783.01	1.614
783.19	1.567
783.37	1.510
783.55	1.539
783.72	1.644
783.90	1.687
784.08	1.643
784.26	1.753
784.44	1.951
784.62	1.994
784.80	1.670
784.98	1.745
785.16	1.782
785.33	1.907
785.51	1.809
785.69	1.687
785.87	1.677
786.05	1.819
786.23	1.787
786.41	1.724
786.59	1.748
786.77	1.766
786.94	1.671
787.12	1.684
787.30	1.694
787.48	1.673
787.66	1.631
787.84	1.640
788.02	1.551
788.19	1.533
788.37	1.479
788.55	1.489
788.73	1.491
788.91	1.475
789.09	1.418
789.27	1.391
789.44	1.441
789.62	1.474
789.80	1.544
789.98	1.757
790.16	1.649
790.34	1.640
790.51	1.584
790.69	1.728
790.87	1.770
791.05	1.762
791.23	1.683
791.41	1.683
791.58	1.716
791.76	1.571
791.94	1.401
792.12	1.445
792.30	1.443
792.48	1.429
792.65	1.410
792.83	1.442
793.01	1.452
793.19	1.459
793.37	1.391
793.54	1.376
793.72	1.408
793.90	1.411
794.08	1.368
794.26	1.373
794.43	1.403
794.61	1.334
794.79	1.290
794.97	1.300
795.15	1.312
795.32	1.329
795.50	1.303
795.68	1.279
795.86	1.277
796.04	1.283
796.21	1.267
796.39	1.265
796.57	1.299
796.75	1.334
796.92	1.327
797.10	1.334
797.28	1.334
797.46	1.344
797.64	1.361
797.81	1.395
797.99	1.407
798.17	1.422
798.35	1.401
798.52	1.427
798.70	1.388
798.88	1.442
799.06	1.459
799.23	1.464
799.41	1.484
799.59	1.452
799.77	1.408
799.94	1.438
800.12	1.474
800.30	1.574
800.48	1.590
800.65	1.607
800.83	1.522
801.01	1.469
801.19	1.500
801.36	1.483
801.54	1.494
801.72	1.569
801.90	1.503
802.07	1.479
802.25	1.401
802.43	1.338
802.60	1.331
802.78	1.358
802.96	1.382
803.14	1.353
803.31	1.351
803.49	1.354
803.67	1.320
803.84	1.339
804.02	1.300
804.20	1.307
804.38	1.300
804.55	1.297
804.73	1.256
804.91	1.251
805.08	1.292
805.26	1.280
805.44	1.704
805.61	1.727
805.79	1.723
805.97	1.762
806.15	1.715
806.32	1.709
806.50	1.746
806.68	1.736
806.85	1.687
807.03	1.585
807.21	1.703
807.38	1.270
807.56	1.251
807.74	1.284
807.91	1.298
808.09	1.298
808.27	1.378
808.44	1.523
808.62	1.561
808.80	1.583
808.97	1.574
809.15	1.531
809.33	1.609
809.50	1.643
809.68	1.561
809.86	1.613
810.03	1.915
810.21	1.697
810.39	1.564
810.56	1.615
810.74	1.758
810.91	-0.000
811.09	-0.000
811.27	-0.000
811.44	-0.000
811.62	-0.000
811.80	-0.000
811.97	-0.000
812.15	-0.000
812.33	-0.000
812.50	2.846
812.68	2.255
812.85	1.493
813.03	1.508
813.21	1.351
813.38	1.345
813.56	1.343
813.74	1.405
813.91	1.438
814.09	1.598
814.26	1.539
814.44	1.543
814.62	1.498
814.79	1.510
814.97	1.512
815.14	1.547
815.32	1.559
815.50	1.662
815.67	1.614
815.85	1.552
816.02	1.495
816.20	1.524
816.38	1.612
816.55	1.656
816.73	1.692
816.90	1.772
817.08	2.142
817.26	2.228
817.43	1.946
817.61	-0.000
817.78	-0.000
817.96	2.707
818.13	2.364
818.31	2.343
818.49	2.577
818.66	2.200
818.84	1.987
819.01	1.740
819.19	1.773
819.36	1.756
819.54	1.513
819.71	1.897
819.89	1.992
820.07	2.179
820.24	2.070
820.42	2.114
820.59	2.364
820.77	-0.000
820.94	-0.000
821.12	-0.000
821.29	-0.000
821.47	-0.000
821.64	2.009
821.82	2.222
822.00	2.098
822.17	2.053
822.35	2.001
822.52	2.058
822.70	1.873
822.87	1.985
823.05	1.818
823.22	1.948
823.40	2.261
823.57	-0.000
823.75	-0.000
823.92	-0.000
824.10	-0.000
824.27	-0.000
824.45	-0.000
824.62	-0.000
824.80	-0.000
824.97	-0.000
825.15	-0.000
825.32	-0.000
825.50	-0.000
825.67	-0.000
825.85	-0.000
826.02	-0.000
826.20	-0.000
826.37	-0.000
826.55	-0.000
826.72	-0.000
826.90	-0.000
827.07	-0.000
827.25	-0.000
827.42	-0.000
827.60	-0.000
827.77	-0.000
827.95	-0.000
828.12	-0.000
828.30	-0.000
828.47	-0.000
828.65	-0.000
828.82	-0.000
829.00	-0.000
829.17	-0.000
829.34	-0.000
829.52	-0.000
829.69	-0.000
829.87	-0.000
830.04	-0.000
830.22	-0.000
830.39	-0.000
830.57	-0.000
830.74	-0.000
830.92	-0.000
831.09	-0.000
831.26	-0.000
831.44	-0.000
831.61	-0.000
831.79	-0.000
831.96	-0.000
832.14	-0.000
832.31	-0.000
832.49	-0.000
832.66	-0.000
832.83	-0.000
833.01	-0.000
833.18	-0.000
833.36	-0.000
833.53	-0.000
833.70	-0.000
833.88	-0.000
834.05	-0.000
834.23	-0.000
834.40	-0.000
834.58	-0.000
834.75	-0.000
834.92	-0.000
835.10	-0.000
835.27	-0.000
835.45	-0.000
835.62	-0.000
835.79	-0.000
835.97	-0.000
836.14	-0.000
836.32	-0.000
836.49	-0.000
836.66	-0.000
836.84	-0.000
837.01	-0.000
837.18	-0.000
837.36	-0.000
837.53	-0.000
837.71	-0.000
837.88	-0.000
838.05	-0.000
838.23	-0.000
838.40	-0.000
838.58	-0.000
838.75	-0.000
838.92	-0.000
839.10	-0.000
839.27	-0.000
839.44	-0.000
839.62	-0.000
839.79	-0.000
839.96	-0.000
840.14	-0.000
840.31	-0.000
840.48	-0.000
840.66	-0.000
840.83	-0.000
841.01	-0.000
841.18	-0.000
841.35	-0.000
841.53	-0.000
841.70	-0.000
841.87	-0.000
842.05	-0.000
842.22	-0.000
842.39	-0.000
842.57	-0.000
842.74	-0.000
842.91	-0.000
843.09	-0.000
843.26	-0.000
843.43	-0.000
843.60	-0.000
843.78	-0.000
843.95	-0.000
844.12	-0.000
844.30	-0.000
844.47	-0.000
844.64	-0.000
844.82	-0.000
844.99	-0.000
845.16	-0.000
845.34	-0.000
845.51	-0.000
845.68	-0.000
845.85	-0.000
846.03	-0.000
846.20	-0.000
846.37	-0.000
846.55	-0.000
846.72	-0.000
846.89	-0.000
847.06	-0.000
847.24	-0.000
847.41	-0.000
847.58	-0.000
847.76	-0.000
847.93	-0.000
848.10	-0.000
848.27	-0.000
848.45	-0.000
848.62	-0.000
848.79	-0.000
848.97	-0.000
849.14	-0.000
849.31	-0.000
849.48	-0.000
849.66	-0.000
849.83	-0.000
850.00	-0.000
850.17	-0.000
850.35	-0.000
850.52	-0.000
850.69	-0.000
850.86	-0.000
851.04	-0.000
851.21	-0.000
851.38	-0.000
851.55	-0.000
851.72	-0.000
851.90	-0.000
852.07	-0.000
852.24	-0.000
852.41	-0.000
852.59	-0.000
852.76	-0.000
852.93	-0.000
853.10	-0.000
853.28	-0.000
853.45	-0.000
853.62	-0.000
853.79	-0.000
853.96	-0.000
854.14	-0.000
854.31	-0.000
854.48	-0.000
854.65	-0.000
854.82	-0.000
855.00	-0.000
855.17	-0.000
855.34	-0.000
855.51	-0.000
855.68	-0.000
855.86	-0.000
856.03	-0.000
856.20	-0.000
856.37	-0.000
856.54	-0.000
856.72	-0.000
856.89	-0.000
857.06	-0.000
857.23	-0.000
857.40	-0.000
857.57	-0.000
857.75	-0.000
857.92	-0.000
858.09	-0.000
858.26	-0.000
858.43	-0.000
858.60	-0.000
858.78	-0.000
858.95	-0.000
859.12	-0.000
859.29	-0.000
859.46	-0.000
859.63	-0.000
859.81	-0.000
859.98	-0.000
860.15	-0.000
860.32	-0.000
860.49	-0.000
860.66	-0.000
860.83	-0.000
861.01	-0.000
861.18	-0.000
861.35	-0.000
861.52	-0.000
861.69	-0.000
861.86	-0.000
862.03	-0.000
862.21	-0.000
862.38	-0.000
862.55	-0.000
862.72	-0.000
862.89	-0.000
863.06	-0.000
863.23	-0.000
863.40	-0.000
863.58	-0.000
863.75	-0.000
863.92	-0.000
864.09	-0.000
864.26	-0.000
864.43	-0.000
864.60	-0.000
864.77	-0.000
864.94	-0.000
865.11	-0.000
865.29	-0.000
865.46	-0.000
865.63	-0.000
865.80	-0.000
865.97	-0.000
866.14	-0.000
866.31	-0.000
866.48	-0.000
866.65	-0.000
866.82	-0.000
866.99	-0.000
867.16	-0.000
867.34	-0.000
867.51	-0.000
867.68	-0.000
867.85	-0.000
868.02	-0.000
868.19	-0.000
868.36	-0.000
868.53	-0.000
868.70	-0.000
868.87	-0.000
869.04	-0.000
869.21	-0.000
869.38	-0.000
869.55	-0.000
869.72	-0.000
869.89	-0.000
870.06	-0.000
870.24	-0.000
870.41	-0.000
870.58	-0.000
870.75	-0.000
870.92	-0.000
871.09	-0.000
871.26	-0.000
871.43	-0.000
871.60	-0.000
871.77	-0.000
871.94	-0.000
872.11	-0.000
872.28	-0.000
872.45	-0.000
872.62	-0.000
872.79	-0.000
872.96	-0.000
873.13	-0.000
873.30	-0.000
873.47	-0.000
873.64	-0.000
873.81	-0.000
873.98	-0.000
874.15	-0.000
874.32	-0.000
874.49	-0.000
874.66	-0.000
874.83	-0.000
875.00	-0.000
875.17	-0.000
875.34	-0.000
875.51	-0.000
875.68	-0.000
875.85	-0.000
876.02	-0.000
876.19	-0.000
876.36	-0.000
876.53	-0.000
876.70	-0.000
876.87	-0.000
877.04	-0.000
877.21	-0.000
877.38	-0.000
877.55	-0.000
877.72	-0.000
877.89	-0.000
878.06	-0.000
878.23	-0.000
878.39	-0.000
878.56	-0.000
878.73	-0.000
878.90	-0.000
879.07	-0.000
879.24	-0.000
879.41	-0.000
879.58	-0.000
879.75	-0.000
879.92	-0.000
880.09	-0.000
880.26	-0.000
880.43	-0.000
880.60	-0.000
880.77	-0.000
880.94	-0.000
881.11	-0.000
881.27	-0.000
881.44	-0.000
881.61	-0.000
881.78	-0.000
881.95	-0.000
882.12	-0.000
882.29	-0.000
882.46	-0.000
882.63	-0.000
882.80	-0.000
882.97	-0.000
883.14	-0.000
883.30	-0.000
883.47	-0.000
883.64	-0.000
883.81	-0.000
883.98	-0.000
884.15	-0.000
884.32	-0.000
884.49	-0.000
884.66	-0.000
884.82	-0.000
884.99	-0.000
885.16	-0.000
885.33	-0.000
885.50	-0.000
885.67	-0.000
885.84	-0.000
886.01	-0.000
886.17	-0.000
886.34	-0.000
886.51	-0.000
886.68	-0.000
886.85	-0.000
887.02	-0.000
887.19	-0.000
887.36	-0.000
887.52	-0.000
887.69	-0.000
887.86	-0.000
888.03	-0.000
888.20	-0.000
888.37	-0.000
888.54	-0.000
888.70	-0.000
888.87	-0.000
889.04	-0.000
889.21	-0.000
889.38	-0.000
889.55	-0.000
889.71	-0.000
889.88	-0.000
890.05	-0.000
890.22	-0.000
890.39	-0.000
>>>>>End Processed Spectral Data<<<<<
