SpectraSuite Data File
++++++++++++++++++++++++++++++++++++
Date: Fri Jun 19 16:48:57 CEST 2015
User: introlabs
Dark Spectrum Present: Yes
Reference Spectrum Present: Yes
Number of Sampled Component Spectra: 1
Spectrometers: USB4H08886
Integration Time (usec): 745692 (USB4H08886)
Spectra Averaged: 5 (USB4H08886)
Boxcar Smoothing: 5 (USB4H08886)
Correct for Electrical Dark: Yes (USB4H08886)
Strobe/Lamp Enabled: No (USB4H08886)
Correct for Detector Non-linearity: Yes (USB4H08886)
Correct for Stray Light: Yes (USB4H08886)
Number of Pixels in Processed Spectrum: 3648
>>>>>Begin Processed Spectral Data<<<<<
178.14	-0.000
178.36	-0.000
178.57	-0.000
178.79	-0.000
179.01	-0.000
179.22	-0.000
179.44	-0.000
179.65	-0.000
179.87	-0.000
180.08	-0.000
180.30	-0.000
180.52	-0.000
180.73	-0.000
180.95	-0.000
181.16	-0.000
181.38	-0.000
181.59	-0.000
181.81	-0.000
182.03	-0.000
182.24	-0.000
182.46	-0.000
182.67	-0.000
182.89	-0.000
183.10	-0.000
183.32	-0.000
183.54	-0.000
183.75	-0.000
183.97	-0.000
184.18	-0.000
184.40	-0.000
184.61	-0.000
184.83	-0.000
185.04	-0.000
185.26	-0.000
185.48	-0.000
185.69	-0.000
185.91	-0.000
186.12	-0.000
186.34	-0.000
186.55	-0.000
186.77	-0.000
186.98	-0.000
187.20	-0.000
187.42	-0.000
187.63	-0.000
187.85	-0.000
188.06	-0.000
188.28	-0.000
188.49	-0.000
188.71	-0.000
188.92	-0.000
189.14	-0.000
189.36	-0.000
189.57	-0.000
189.79	-0.000
190.00	-0.000
190.22	-0.000
190.43	-0.000
190.65	-0.000
190.86	-0.000
191.08	-0.000
191.29	-0.000
191.51	-0.000
191.72	-0.000
191.94	-0.000
192.16	-0.000
192.37	-0.000
192.59	-0.000
192.80	-0.000
193.02	-0.000
193.23	-0.000
193.45	-0.000
193.66	-0.000
193.88	-0.000
194.09	-0.000
194.31	-0.000
194.52	-0.000
194.74	-0.000
194.95	-0.000
195.17	-0.000
195.38	-0.000
195.60	-0.000
195.81	-0.000
196.03	-0.000
196.25	-0.000
196.46	-0.000
196.68	-0.000
196.89	-0.000
197.11	-0.000
197.32	-0.000
197.54	-0.000
197.75	-0.000
197.97	-0.000
198.18	-0.000
198.40	-0.000
198.61	-0.000
198.83	-0.000
199.04	-0.000
199.26	-0.000
199.47	-0.000
199.69	-0.000
199.90	-0.000
200.12	-0.000
200.33	-0.000
200.55	-0.000
200.76	-0.000
200.98	-0.000
201.19	-0.000
201.41	-0.000
201.62	-0.000
201.84	-0.000
202.05	-0.000
202.27	-0.000
202.48	-0.000
202.70	-0.000
202.91	-0.000
203.13	-0.000
203.34	-0.000
203.56	-0.000
203.77	-0.000
203.99	-0.000
204.20	-0.000
204.42	-0.000
204.63	-0.000
204.85	-0.000
205.06	-0.000
205.28	-0.000
205.49	-0.000
205.71	-0.000
205.92	-0.000
206.14	-0.000
206.35	-0.000
206.56	-0.000
206.78	-0.000
206.99	-0.000
207.21	-0.000
207.42	-0.000
207.64	-0.000
207.85	-0.000
208.07	-0.000
208.28	-0.000
208.50	-0.000
208.71	-0.000
208.93	-0.000
209.14	-0.000
209.36	-0.000
209.57	-0.000
209.79	-0.000
210.00	-0.000
210.22	-0.000
210.43	-0.000
210.64	-0.000
210.86	-0.000
211.07	-0.000
211.29	-0.000
211.50	-0.000
211.72	-0.000
211.93	-0.000
212.15	-0.000
212.36	-0.000
212.58	-0.000
212.79	-0.000
213.01	-0.000
213.22	-0.000
213.43	-0.000
213.65	-0.000
213.86	-0.000
214.08	-0.000
214.29	-0.000
214.51	-0.000
214.72	-0.000
214.94	-0.000
215.15	-0.000
215.36	-0.000
215.58	-0.000
215.79	-0.000
216.01	-0.000
216.22	-0.000
216.44	-0.000
216.65	-0.000
216.87	-0.000
217.08	-0.000
217.29	-0.000
217.51	-0.000
217.72	-0.000
217.94	-0.000
218.15	-0.000
218.37	-0.000
218.58	-0.000
218.80	-0.000
219.01	-0.000
219.22	-0.000
219.44	-0.000
219.65	-0.000
219.87	-0.000
220.08	-0.000
220.30	-0.000
220.51	-0.000
220.72	-0.000
220.94	-0.000
221.15	-0.000
221.37	-0.000
221.58	-0.000
221.79	-0.000
222.01	-0.000
222.22	-0.000
222.44	-0.000
222.65	-0.000
222.87	-0.000
223.08	-0.000
223.29	-0.000
223.51	-0.000
223.72	-0.000
223.94	-0.000
224.15	-0.000
224.36	-0.000
224.58	-0.000
224.79	-0.000
225.01	-0.000
225.22	-0.000
225.44	-0.000
225.65	-0.000
225.86	-0.000
226.08	-0.000
226.29	-0.000
226.51	-0.000
226.72	-0.000
226.93	-0.000
227.15	-0.000
227.36	-0.000
227.58	-0.000
227.79	-0.000
228.00	-0.000
228.22	-0.000
228.43	-0.000
228.65	-0.000
228.86	-0.000
229.07	-0.000
229.29	-0.000
229.50	-0.000
229.72	-0.000
229.93	-0.000
230.14	-0.000
230.36	-0.000
230.57	-0.000
230.78	-0.000
231.00	-0.000
231.21	-0.000
231.43	-0.000
231.64	-0.000
231.85	-0.000
232.07	-0.000
232.28	-0.000
232.50	-0.000
232.71	-0.000
232.92	-0.000
233.14	-0.000
233.35	-0.000
233.56	-0.000
233.78	-0.000
233.99	-0.000
234.21	-0.000
234.42	-0.000
234.63	-0.000
234.85	-0.000
235.06	-0.000
235.27	-0.000
235.49	-0.000
235.70	-0.000
235.91	-0.000
236.13	-0.000
236.34	-0.000
236.56	-0.000
236.77	-0.000
236.98	-0.000
237.20	-0.000
237.41	-0.000
237.62	-0.000
237.84	-0.000
238.05	-0.000
238.26	-0.000
238.48	-0.000
238.69	-0.000
238.91	-0.000
239.12	-0.000
239.33	-0.000
239.55	-0.000
239.76	-0.000
239.97	-0.000
240.19	-0.000
240.40	-0.000
240.61	-0.000
240.83	-0.000
241.04	-0.000
241.25	-0.000
241.47	-0.000
241.68	-0.000
241.89	-0.000
242.11	-0.000
242.32	-0.000
242.53	-0.000
242.75	-0.000
242.96	-0.000
243.17	-0.000
243.39	-0.000
243.60	-0.000
243.81	-0.000
244.03	-0.000
244.24	-0.000
244.45	-0.000
244.67	-0.000
244.88	-0.000
245.09	-0.000
245.31	-0.000
245.52	-0.000
245.73	-0.000
245.95	-0.000
246.16	-0.000
246.37	-0.000
246.59	-0.000
246.80	-0.000
247.01	-0.000
247.23	-0.000
247.44	-0.000
247.65	-0.000
247.87	-0.000
248.08	-0.000
248.29	-0.000
248.51	-0.000
248.72	-0.000
248.93	-0.000
249.15	-0.000
249.36	-0.000
249.57	-0.000
249.78	-0.000
250.00	-0.000
250.21	-0.000
250.42	-0.000
250.64	-0.000
250.85	-0.000
251.06	-0.000
251.28	-0.000
251.49	-0.000
251.70	-0.000
251.92	-0.000
252.13	-0.000
252.34	-0.000
252.55	-0.000
252.77	-0.000
252.98	-0.000
253.19	-0.000
253.41	-0.000
253.62	-0.000
253.83	-0.000
254.05	-0.000
254.26	-0.000
254.47	-0.000
254.68	-0.000
254.90	-0.000
255.11	-0.000
255.32	-0.000
255.54	-0.000
255.75	-0.000
255.96	-0.000
256.17	-0.000
256.39	-0.000
256.60	-0.000
256.81	-0.000
257.03	-0.000
257.24	-0.000
257.45	-0.000
257.66	-0.000
257.88	-0.000
258.09	-0.000
258.30	-0.000
258.51	-0.000
258.73	-0.000
258.94	-0.000
259.15	-0.000
259.37	-0.000
259.58	-0.000
259.79	-0.000
260.00	-0.000
260.22	-0.000
260.43	-0.000
260.64	-0.000
260.85	-0.000
261.07	-0.000
261.28	-0.000
261.49	-0.000
261.71	-0.000
261.92	-0.000
262.13	-0.000
262.34	-0.000
262.56	-0.000
262.77	-0.000
262.98	-0.000
263.19	-0.000
263.41	-0.000
263.62	-0.000
263.83	-0.000
264.04	-0.000
264.26	-0.000
264.47	-0.000
264.68	-0.000
264.89	-0.000
265.11	-0.000
265.32	-0.000
265.53	-0.000
265.74	-0.000
265.96	-0.000
266.17	-0.000
266.38	-0.000
266.59	-0.000
266.81	-0.000
267.02	-0.000
267.23	-0.000
267.44	-0.000
267.65	-0.000
267.87	-0.000
268.08	-0.000
268.29	-0.000
268.50	-0.000
268.72	-0.000
268.93	-0.000
269.14	-0.000
269.35	-0.000
269.57	-0.000
269.78	-0.000
269.99	-0.000
270.20	-0.000
270.41	-0.000
270.63	-0.000
270.84	-0.000
271.05	-0.000
271.26	-0.000
271.48	-0.000
271.69	-0.000
271.90	-0.000
272.11	-0.000
272.32	-0.000
272.54	-0.000
272.75	-0.000
272.96	-0.000
273.17	-0.000
273.39	-0.000
273.60	-0.000
273.81	-0.000
274.02	-0.000
274.23	-0.000
274.45	-0.000
274.66	-0.000
274.87	-0.000
275.08	-0.000
275.29	-0.000
275.51	-0.000
275.72	-0.000
275.93	-0.000
276.14	-0.000
276.35	-0.000
276.57	-0.000
276.78	-0.000
276.99	-0.000
277.20	-0.000
277.41	-0.000
277.63	-0.000
277.84	-0.000
278.05	-0.000
278.26	-0.000
278.47	-0.000
278.69	-0.000
278.90	-0.000
279.11	-0.000
279.32	-0.000
279.53	-0.000
279.74	-0.000
279.96	-0.000
280.17	-0.000
280.38	-0.000
280.59	-0.000
280.80	-0.000
281.02	-0.000
281.23	-0.000
281.44	-0.000
281.65	-0.000
281.86	-0.000
282.07	-0.000
282.29	-0.000
282.50	-0.000
282.71	-0.000
282.92	-0.000
283.13	-0.000
283.35	-0.000
283.56	-0.000
283.77	-0.000
283.98	-0.000
284.19	-0.000
284.40	-0.000
284.62	-0.000
284.83	-0.000
285.04	-0.000
285.25	-0.000
285.46	-0.000
285.67	-0.000
285.88	-0.000
286.10	-0.000
286.31	-0.000
286.52	-0.000
286.73	-0.000
286.94	-0.000
287.15	-0.000
287.37	-0.000
287.58	-0.000
287.79	-0.000
288.00	-0.000
288.21	-0.000
288.42	-0.000
288.63	-0.000
288.85	-0.000
289.06	-0.000
289.27	-0.000
289.48	-0.000
289.69	-0.000
289.90	-0.000
290.11	-0.000
290.33	-0.000
290.54	-0.000
290.75	-0.000
290.96	-0.000
291.17	-0.000
291.38	-0.000
291.59	-0.000
291.81	-0.000
292.02	-0.000
292.23	-0.000
292.44	-0.000
292.65	-0.000
292.86	-0.000
293.07	-0.000
293.28	-0.000
293.50	-0.000
293.71	-0.000
293.92	-0.000
294.13	-0.000
294.34	-0.000
294.55	-0.000
294.76	-0.000
294.97	-0.000
295.19	-0.000
295.40	-0.000
295.61	-0.000
295.82	-0.000
296.03	-0.000
296.24	-0.000
296.45	-0.000
296.66	-0.000
296.87	-0.000
297.09	-0.000
297.30	-0.000
297.51	-0.000
297.72	-0.000
297.93	-0.000
298.14	-0.000
298.35	-0.000
298.56	-0.000
298.77	-0.000
298.99	-0.000
299.20	-0.000
299.41	-0.000
299.62	-0.000
299.83	-0.000
300.04	-0.000
300.25	-0.000
300.46	-0.000
300.67	-0.000
300.88	-0.000
301.10	-0.000
301.31	-0.000
301.52	-0.000
301.73	-0.000
301.94	-0.000
302.15	-0.000
302.36	-0.000
302.57	-0.000
302.78	-0.000
302.99	-0.000
303.20	-0.000
303.41	-0.000
303.63	-0.000
303.84	-0.000
304.05	-0.000
304.26	-0.000
304.47	-0.000
304.68	-0.000
304.89	-0.000
305.10	-0.000
305.31	-0.000
305.52	-0.000
305.73	-0.000
305.94	-0.000
306.15	-0.000
306.37	-0.000
306.58	-0.000
306.79	-0.000
307.00	-0.000
307.21	-0.000
307.42	-0.000
307.63	-0.000
307.84	-0.000
308.05	-0.000
308.26	-0.000
308.47	-0.000
308.68	-0.000
308.89	-0.000
309.10	-0.000
309.31	-0.000
309.52	-0.000
309.73	-0.000
309.95	-0.000
310.16	-0.000
310.37	-0.000
310.58	-0.000
310.79	-0.000
311.00	-0.000
311.21	-0.000
311.42	-0.000
311.63	-0.000
311.84	-0.000
312.05	-0.000
312.26	-0.000
312.47	-0.000
312.68	-0.000
312.89	-0.000
313.10	-0.000
313.31	-0.000
313.52	-0.000
313.73	-0.000
313.94	-0.000
314.15	-0.000
314.36	-0.000
314.57	-0.000
314.78	-0.000
314.99	-0.000
315.21	-0.000
315.42	-0.000
315.63	-0.000
315.84	-0.000
316.05	-0.000
316.26	-0.000
316.47	-0.000
316.68	-0.000
316.89	-0.000
317.10	-0.000
317.31	-0.000
317.52	-0.000
317.73	-0.000
317.94	-0.000
318.15	-0.000
318.36	-0.000
318.57	-0.000
318.78	-0.000
318.99	-0.000
319.20	-0.000
319.41	-0.000
319.62	-0.000
319.83	-0.000
320.04	-0.000
320.25	-0.000
320.46	-0.000
320.67	-0.000
320.88	-0.000
321.09	-0.000
321.30	-0.000
321.51	-0.000
321.72	-0.000
321.93	-0.000
322.14	-0.000
322.35	-0.000
322.56	-0.000
322.77	-0.000
322.98	-0.000
323.19	-0.000
323.40	-0.000
323.61	-0.000
323.82	-0.000
324.03	-0.000
324.24	-0.000
324.45	-0.000
324.66	-0.000
324.87	-0.000
325.08	-0.000
325.29	-0.000
325.50	-0.000
325.71	-0.000
325.92	-0.000
326.13	-0.000
326.34	-0.000
326.55	-0.000
326.76	-0.000
326.97	-0.000
327.18	-0.000
327.39	-0.000
327.60	-0.000
327.80	-0.000
328.01	-0.000
328.22	-0.000
328.43	-0.000
328.64	-0.000
328.85	-0.000
329.06	-0.000
329.27	-0.000
329.48	-0.000
329.69	-0.000
329.90	-0.000
330.11	-0.000
330.32	-0.000
330.53	-0.000
330.74	-0.000
330.95	-0.000
331.16	-0.000
331.37	-0.000
331.58	-0.000
331.79	-0.000
332.00	-0.000
332.21	-0.000
332.42	-0.000
332.63	-0.000
332.83	-0.000
333.04	-0.000
333.25	-0.000
333.46	-0.000
333.67	-0.000
333.88	-0.000
334.09	-0.000
334.30	-0.000
334.51	-0.000
334.72	-0.000
334.93	-0.000
335.14	-0.000
335.35	-0.000
335.56	-0.000
335.77	-0.000
335.98	-0.000
336.18	-0.000
336.39	-0.000
336.60	-0.000
336.81	-0.000
337.02	-0.000
337.23	-0.000
337.44	-0.000
337.65	-0.000
337.86	-0.000
338.07	-0.000
338.28	-0.000
338.49	-0.000
338.70	-0.000
338.91	-0.000
339.11	-0.000
339.32	-0.000
339.53	-0.000
339.74	-0.000
339.95	-0.000
340.16	-0.000
340.37	-0.000
340.58	-0.000
340.79	-0.000
341.00	-0.000
341.21	-0.000
341.41	-0.000
341.62	-0.000
341.83	-0.000
342.04	-0.000
342.25	-0.000
342.46	-0.000
342.67	-0.000
342.88	-0.000
343.09	-0.000
343.30	-0.000
343.50	-0.000
343.71	-0.000
343.92	-0.000
344.13	-0.000
344.34	-0.000
344.55	-0.000
344.76	-0.000
344.97	-0.000
345.18	-0.000
345.38	-0.000
345.59	-0.000
345.80	-0.000
346.01	-0.000
346.22	-0.000
346.43	-0.000
346.64	-0.000
346.85	-0.000
347.06	-0.000
347.26	-0.000
347.47	-0.000
347.68	-0.000
347.89	-0.000
348.10	-0.000
348.31	-0.000
348.52	-0.000
348.73	-0.000
348.93	-0.000
349.14	-0.000
349.35	-0.000
349.56	-0.000
349.77	-0.000
349.98	-0.000
350.19	-0.000
350.39	-0.000
350.60	-0.000
350.81	-0.000
351.02	-0.000
351.23	-0.000
351.44	-0.000
351.65	-0.000
351.86	-0.000
352.06	-0.000
352.27	-0.000
352.48	-0.000
352.69	-0.000
352.90	-0.000
353.11	-0.000
353.31	-0.000
353.52	-0.000
353.73	-0.000
353.94	-0.000
354.15	-0.000
354.36	-0.000
354.57	-0.000
354.77	-0.000
354.98	-0.000
355.19	-0.000
355.40	-0.000
355.61	-0.000
355.82	-0.000
356.02	-0.000
356.23	-0.000
356.44	-0.000
356.65	-0.000
356.86	-0.000
357.07	-0.000
357.27	-0.000
357.48	-0.000
357.69	-0.000
357.90	-0.000
358.11	-0.000
358.32	-0.000
358.52	-0.000
358.73	-0.000
358.94	-0.000
359.15	-0.000
359.36	-0.000
359.56	-0.000
359.77	-0.000
359.98	-0.000
360.19	-0.000
360.40	-0.000
360.61	-0.000
360.81	-0.000
361.02	-0.000
361.23	-0.000
361.44	-0.000
361.65	-0.000
361.85	-0.000
362.06	-0.000
362.27	-0.000
362.48	-0.000
362.69	-0.000
362.89	-0.000
363.10	-0.000
363.31	-0.000
363.52	-0.000
363.73	-0.000
363.93	-0.000
364.14	-0.000
364.35	-0.000
364.56	-0.000
364.77	-0.000
364.97	-0.000
365.18	-0.000
365.39	-0.000
365.60	-0.000
365.81	-0.000
366.01	-0.000
366.22	-0.000
366.43	-0.000
366.64	-0.000
366.84	-0.000
367.05	-0.000
367.26	-0.000
367.47	-0.000
367.68	-0.000
367.88	-0.000
368.09	-0.000
368.30	-0.000
368.51	-0.000
368.71	-0.000
368.92	-0.000
369.13	-0.000
369.34	-0.000
369.55	-0.000
369.75	-0.000
369.96	-0.000
370.17	-0.000
370.38	-0.000
370.58	-0.000
370.79	-0.000
371.00	-0.000
371.21	-0.000
371.41	-0.000
371.62	-0.000
371.83	-0.000
372.04	-0.000
372.24	-0.000
372.45	-0.000
372.66	-0.000
372.87	-0.000
373.07	-0.000
373.28	-0.000
373.49	-0.000
373.70	-0.000
373.90	-0.000
374.11	-0.000
374.32	-0.000
374.53	-0.000
374.73	-0.000
374.94	-0.000
375.15	-0.000
375.36	-0.000
375.56	-0.000
375.77	-0.000
375.98	-0.000
376.19	-0.000
376.39	-0.000
376.60	-0.000
376.81	-0.000
377.02	-0.000
377.22	-0.000
377.43	-0.000
377.64	-0.000
377.84	-0.000
378.05	-0.000
378.26	-0.000
378.47	-0.000
378.67	-0.000
378.88	-0.000
379.09	-0.000
379.30	-0.000
379.50	-0.000
379.71	-0.000
379.92	-0.000
380.12	-0.000
380.33	-0.000
380.54	-0.000
380.75	-0.000
380.95	-0.000
381.16	-0.000
381.37	-0.000
381.57	-0.000
381.78	-0.000
381.99	-0.000
382.20	-0.000
382.40	-0.000
382.61	-0.000
382.82	-0.000
383.02	-0.000
383.23	-0.000
383.44	-0.000
383.64	-0.000
383.85	-0.000
384.06	-0.000
384.27	-0.000
384.47	-0.000
384.68	-0.000
384.89	-0.000
385.09	-0.000
385.30	-0.000
385.51	-0.000
385.71	-0.000
385.92	-0.000
386.13	-0.000
386.33	-0.000
386.54	-0.000
386.75	-0.000
386.95	-0.000
387.16	-0.000
387.37	-0.000
387.58	-0.000
387.78	-0.000
387.99	-0.000
388.20	-0.000
388.40	-0.000
388.61	-0.000
388.82	-0.000
389.02	-0.000
389.23	-0.000
389.44	-0.000
389.64	-0.000
389.85	-0.000
390.06	-0.000
390.26	-0.000
390.47	-0.000
390.68	-0.000
390.88	-0.000
391.09	-0.000
391.30	-0.000
391.50	-0.000
391.71	-0.000
391.92	-0.000
392.12	-0.000
392.33	-0.000
392.53	-0.000
392.74	-0.000
392.95	-0.000
393.15	-0.000
393.36	-0.000
393.57	-0.000
393.77	-0.000
393.98	-0.000
394.19	-0.000
394.39	-0.000
394.60	-0.000
394.81	-0.000
395.01	-0.000
395.22	-0.000
395.43	-0.000
395.63	-0.000
395.84	-0.000
396.04	-0.000
396.25	-0.000
396.46	-0.000
396.66	-0.000
396.87	-0.000
397.08	-0.000
397.28	-0.000
397.49	-0.000
397.69	-0.000
397.90	-0.000
398.11	-0.000
398.31	-0.000
398.52	-0.000
398.73	-0.000
398.93	-0.000
399.14	-0.000
399.34	-0.000
399.55	-0.000
399.76	-0.000
399.96	-0.000
400.17	-0.000
400.37	-0.000
400.58	-0.000
400.79	-0.000
400.99	-0.000
401.20	-0.000
401.41	-0.000
401.61	-0.000
401.82	-0.000
402.02	-0.000
402.23	-0.000
402.44	-0.000
402.64	-0.000
402.85	-0.000
403.05	-0.000
403.26	-0.000
403.47	-0.000
403.67	-0.000
403.88	-0.000
404.08	-0.000
404.29	-0.000
404.50	-0.000
404.70	-0.000
404.91	-0.000
405.11	-0.000
405.32	-0.000
405.52	-0.000
405.73	-0.000
405.94	-0.000
406.14	-0.000
406.35	-0.000
406.55	-0.000
406.76	-0.000
406.97	-0.000
407.17	-0.000
407.38	-0.000
407.58	-0.000
407.79	-0.000
407.99	-0.000
408.20	-0.000
408.41	-0.000
408.61	-0.000
408.82	-0.000
409.02	-0.000
409.23	-0.000
409.43	-0.000
409.64	-0.000
409.84	-0.000
410.05	4.091
410.26	3.243
410.46	3.148
410.67	3.236
410.87	-0.000
411.08	-0.000
411.28	-0.000
411.49	-0.000
411.69	-0.000
411.90	-0.000
412.11	-0.000
412.31	-0.000
412.52	-0.000
412.72	-0.000
412.93	-0.000
413.13	-0.000
413.34	-0.000
413.54	-0.000
413.75	-0.000
413.95	-0.000
414.16	-0.000
414.37	-0.000
414.57	-0.000
414.78	-0.000
414.98	-0.000
415.19	-0.000
415.39	-0.000
415.60	-0.000
415.80	-0.000
416.01	-0.000
416.21	-0.000
416.42	-0.000
416.62	-0.000
416.83	-0.000
417.03	-0.000
417.24	-0.000
417.44	3.500
417.65	3.320
417.86	3.382
418.06	2.942
418.27	2.806
418.47	3.000
418.68	2.907
418.88	2.906
419.09	2.770
419.29	2.864
419.50	2.918
419.70	2.954
419.91	2.888
420.11	2.684
420.32	2.907
420.52	2.855
420.73	2.851
420.93	3.073
421.14	-0.000
421.34	-0.000
421.55	3.130
421.75	3.165
421.96	3.473
422.16	3.431
422.37	3.248
422.57	2.870
422.78	3.168
422.98	2.738
423.19	2.648
423.39	2.514
423.60	2.802
423.80	2.921
424.01	2.818
424.21	3.269
424.42	3.745
424.62	3.824
424.83	3.317
425.03	3.136
425.23	3.438
425.44	3.308
425.64	3.655
425.85	3.039
426.05	3.025
426.26	3.053
426.46	2.633
426.67	2.571
426.87	2.981
427.08	3.002
427.28	2.832
427.49	3.014
427.69	3.043
427.90	2.844
428.10	2.636
428.31	2.649
428.51	2.799
428.71	2.759
428.92	2.968
429.12	2.681
429.33	2.730
429.53	4.137
429.74	-0.000
429.94	-0.000
430.15	-0.000
430.35	-0.000
430.56	-0.000
430.76	-0.000
430.96	-0.000
431.17	-0.000
431.37	-0.000
431.58	3.954
431.78	2.795
431.99	2.316
432.19	2.443
432.40	2.567
432.60	2.640
432.80	2.919
433.01	2.797
433.21	2.729
433.42	2.841
433.62	2.774
433.83	2.766
434.03	3.155
434.23	-0.000
434.44	3.228
434.64	2.799
434.85	-0.000
435.05	-0.000
435.26	-0.000
435.46	-0.000
435.66	-0.000
435.87	-0.000
436.07	-0.000
436.28	3.146
436.48	2.843
436.69	2.845
436.89	2.912
437.09	2.434
437.30	2.385
437.50	2.392
437.71	-0.000
437.91	-0.000
438.11	-0.000
438.32	-0.000
438.52	-0.000
438.73	-0.000
438.93	-0.000
439.13	-0.000
439.34	-0.000
439.54	-0.000
439.75	-0.000
439.95	2.842
440.15	-0.000
440.36	-0.000
440.56	3.037
440.77	3.337
440.97	3.489
441.17	3.108
441.38	3.791
441.58	2.870
441.79	2.850
441.99	2.757
442.19	2.568
442.40	2.398
442.60	2.390
442.81	2.328
443.01	2.319
443.21	2.319
443.42	2.329
443.62	2.276
443.82	2.267
444.03	2.322
444.23	2.334
444.44	2.371
444.64	2.353
444.84	2.440
445.05	2.459
445.25	2.388
445.45	2.408
445.66	2.474
445.86	2.455
446.06	2.559
446.27	2.488
446.47	2.634
446.68	2.528
446.88	2.465
447.08	2.393
447.29	2.427
447.49	2.438
447.69	2.426
447.90	2.395
448.10	2.546
448.30	2.412
448.51	2.514
448.71	2.403
448.91	2.468
449.12	2.457
449.32	2.622
449.52	2.575
449.73	2.882
449.93	2.790
450.14	2.953
450.34	2.832
450.54	3.164
450.75	2.766
450.95	2.716
451.15	2.734
451.36	3.070
451.56	2.696
451.76	2.665
451.97	2.495
452.17	2.508
452.37	2.414
452.58	2.347
452.78	2.343
452.98	2.442
453.19	2.449
453.39	2.495
453.59	2.392
453.79	2.406
454.00	2.427
454.20	2.382
454.40	2.422
454.61	2.532
454.81	2.513
455.01	2.433
455.22	2.481
455.42	2.549
455.62	2.429
455.83	2.412
456.03	2.565
456.23	2.596
456.44	2.668
456.64	2.600
456.84	2.570
457.04	2.632
457.25	2.635
457.45	2.447
457.65	2.423
457.86	2.486
458.06	2.477
458.26	2.328
458.47	2.311
458.67	2.351
458.87	2.360
459.07	2.286
459.28	2.326
459.48	2.384
459.68	2.372
459.89	2.337
460.09	2.291
460.29	2.310
460.49	2.349
460.70	2.332
460.90	2.318
461.10	2.325
461.31	2.338
461.51	2.274
461.71	2.413
461.91	2.444
462.12	2.457
462.32	2.457
462.52	2.449
462.72	2.549
462.93	2.537
463.13	2.477
463.33	2.536
463.53	2.536
463.74	2.517
463.94	2.283
464.14	2.333
464.35	2.372
464.55	2.360
464.75	2.328
464.95	2.252
465.16	2.299
465.36	2.272
465.56	2.247
465.76	2.249
465.97	2.269
466.17	2.281
466.37	2.216
466.57	2.247
466.78	2.277
466.98	2.283
467.18	2.249
467.38	2.218
467.59	2.242
467.79	2.313
467.99	2.289
468.19	2.294
468.39	2.379
468.60	2.378
468.80	2.291
469.00	2.330
469.20	2.350
469.41	2.355
469.61	2.359
469.81	2.378
470.01	2.345
470.22	2.353
470.42	2.327
470.62	2.254
470.82	2.291
471.02	2.285
471.23	2.206
471.43	2.207
471.63	2.294
471.83	2.273
472.04	2.222
472.24	2.169
472.44	2.324
472.64	2.322
472.84	2.285
473.05	2.256
473.25	2.318
473.45	2.312
473.65	2.267
473.85	2.241
474.06	2.257
474.26	2.239
474.46	2.316
474.66	2.193
474.86	2.203
475.07	2.195
475.27	2.189
475.47	2.133
475.67	2.133
475.87	2.196
476.08	2.131
476.28	2.181
476.48	2.255
476.68	2.186
476.88	2.139
477.09	2.160
477.29	2.194
477.49	2.179
477.69	2.179
477.89	2.188
478.09	2.143
478.30	2.202
478.50	2.124
478.70	2.083
478.90	2.090
479.10	2.155
479.31	2.191
479.51	2.156
479.71	2.163
479.91	2.150
480.11	2.124
480.31	2.125
480.52	2.077
480.72	2.078
480.92	2.060
481.12	2.039
481.32	1.993
481.52	1.952
481.72	1.948
481.93	2.009
482.13	2.025
482.33	2.018
482.53	1.992
482.73	2.013
482.93	2.028
483.14	2.020
483.34	2.009
483.54	2.025
483.74	2.003
483.94	1.990
484.14	1.922
484.34	1.920
484.55	1.924
484.75	1.926
484.95	1.903
485.15	1.902
485.35	1.905
485.55	1.904
485.75	1.880
485.96	1.890
486.16	1.913
486.36	1.909
486.56	1.892
486.76	1.903
486.96	1.916
487.16	1.911
487.36	1.897
487.57	1.897
487.77	1.903
487.97	1.913
488.17	1.897
488.37	1.894
488.57	1.898
488.77	1.903
488.97	1.886
489.18	1.869
489.38	1.897
489.58	1.895
489.78	1.895
489.98	1.888
490.18	1.882
490.38	1.887
490.58	1.869
490.78	1.880
490.98	1.888
491.19	1.891
491.39	1.886
491.59	1.866
491.79	1.907
491.99	1.905
492.19	1.910
492.39	1.959
492.59	1.954
492.79	1.987
492.99	1.990
493.20	1.991
493.40	1.990
493.60	2.020
493.80	2.006
494.00	1.961
494.20	1.968
494.40	1.959
494.60	1.921
494.80	1.996
495.00	1.967
495.20	1.947
495.40	1.937
495.61	1.961
495.81	1.955
496.01	2.022
496.21	2.057
496.41	2.051
496.61	2.067
496.81	2.048
497.01	1.961
497.21	1.956
497.41	1.967
497.61	1.961
497.81	1.936
498.01	1.935
498.21	1.888
498.41	1.854
498.61	1.850
498.82	1.861
499.02	1.878
499.22	1.884
499.42	1.883
499.62	1.895
499.82	1.905
500.02	1.915
500.22	1.898
500.42	1.930
500.62	1.936
500.82	1.937
501.02	1.907
501.22	1.909
501.42	1.904
501.62	1.935
501.82	1.919
502.02	1.920
502.22	1.912
502.42	1.946
502.62	1.908
502.82	1.909
503.02	1.929
503.22	1.928
503.42	1.910
503.63	1.913
503.83	1.880
504.03	1.873
504.23	1.860
504.43	1.868
504.63	1.882
504.83	1.877
505.03	1.871
505.23	1.886
505.43	1.912
505.63	1.921
505.83	1.919
506.03	1.937
506.23	1.961
506.43	1.961
506.63	1.950
506.83	1.914
507.03	1.945
507.23	1.948
507.43	1.911
507.63	1.911
507.83	1.909
508.03	1.908
508.23	1.899
508.43	1.880
508.63	1.905
508.83	1.905
509.03	1.935
509.23	1.911
509.43	1.919
509.63	1.923
509.83	1.908
510.03	1.946
510.23	1.959
510.43	1.973
510.63	1.969
510.83	1.958
511.03	1.975
511.23	1.929
511.43	1.928
511.63	1.948
511.83	1.971
512.03	1.968
512.22	1.924
512.42	1.924
512.62	1.939
512.82	1.939
513.02	1.930
513.22	1.920
513.42	1.947
513.62	1.985
513.82	1.957
514.02	1.946
514.22	1.958
514.42	1.958
514.62	1.957
514.82	1.946
515.02	1.983
515.22	2.049
515.42	2.048
515.62	2.089
515.82	2.054
516.02	2.063
516.22	2.071
516.42	2.108
516.62	2.132
516.82	2.150
517.01	2.113
517.21	2.096
517.41	2.174
517.61	2.180
517.81	2.099
518.01	2.090
518.21	2.092
518.41	2.072
518.61	2.048
518.81	2.056
519.01	2.059
519.21	2.070
519.41	2.051
519.61	1.947
519.81	1.984
520.00	1.995
520.20	2.000
520.40	2.048
520.60	2.042
520.80	2.026
521.00	2.045
521.20	2.052
521.40	2.141
521.60	2.132
521.80	2.114
522.00	2.089
522.20	2.109
522.39	2.100
522.59	2.039
522.79	2.083
522.99	2.109
523.19	2.061
523.39	2.044
523.59	1.999
523.79	2.055
523.99	2.088
524.19	2.075
524.38	2.044
524.58	2.069
524.78	2.067
524.98	2.017
525.18	2.064
525.38	2.071
525.58	2.068
525.78	2.034
525.98	1.996
526.18	1.989
526.37	1.980
526.57	2.025
526.77	2.012
526.97	2.014
527.17	2.026
527.37	1.959
527.57	2.005
527.77	2.019
527.96	2.023
528.16	2.010
528.36	2.036
528.56	2.076
528.76	2.021
528.96	2.015
529.16	2.034
529.36	2.074
529.55	2.082
529.75	2.021
529.95	2.018
530.15	2.025
530.35	2.073
530.55	2.018
530.75	2.003
530.94	2.019
531.14	2.022
531.34	1.999
531.54	1.972
531.74	2.003
531.94	2.056
532.13	2.034
532.33	2.082
532.53	2.047
532.73	2.053
532.93	2.031
533.13	2.047
533.33	2.040
533.52	2.041
533.72	2.122
533.92	2.092
534.12	2.048
534.32	2.049
534.52	2.009
534.71	2.037
534.91	2.062
535.11	2.110
535.31	2.073
535.51	2.114
535.71	2.137
535.90	2.055
536.10	2.078
536.30	2.110
536.50	2.125
536.70	2.131
536.89	2.084
537.09	2.083
537.29	2.092
537.49	2.101
537.69	2.057
537.89	2.084
538.08	2.072
538.28	2.031
538.48	2.047
538.68	2.070
538.88	2.093
539.07	2.097
539.27	2.058
539.47	2.044
539.67	2.039
539.87	2.067
540.06	2.020
540.26	2.028
540.46	2.057
540.66	2.009
540.86	1.976
541.05	1.966
541.25	1.983
541.45	1.985
541.65	1.954
541.84	1.987
542.04	1.980
542.24	1.983
542.44	1.968
542.64	1.990
542.83	2.019
543.03	2.023
543.23	2.000
543.43	2.003
543.62	2.025
543.82	2.030
544.02	2.010
544.22	2.007
544.42	2.065
544.61	2.071
544.81	2.025
545.01	1.993
545.21	2.019
545.40	2.010
545.60	1.984
545.80	2.030
546.00	2.021
546.19	2.003
546.39	1.996
546.59	1.958
546.79	1.983
546.98	1.988
547.18	1.991
547.38	2.003
547.58	2.043
547.77	2.045
547.97	1.980
548.17	2.002
548.37	2.011
548.56	2.014
548.76	2.005
548.96	2.007
549.16	2.027
549.35	2.033
549.55	1.994
549.75	1.990
549.95	2.027
550.14	2.032
550.34	2.006
550.54	2.086
550.73	2.131
550.93	2.141
551.13	2.108
551.33	2.083
551.52	2.073
551.72	2.072
551.92	2.039
552.12	2.062
552.31	2.054
552.51	2.063
552.71	1.973
552.90	1.980
553.10	1.986
553.30	1.980
553.50	1.975
553.69	1.996
553.89	2.007
554.09	2.015
554.28	1.959
554.48	1.980
554.68	1.996
554.87	2.009
555.07	1.971
555.27	1.969
555.47	1.983
555.66	1.987
555.86	1.973
556.06	2.006
556.25	2.025
556.45	2.220
556.65	2.207
556.84	2.305
557.04	2.405
557.24	2.425
557.43	2.409
557.63	2.576
557.83	2.613
558.02	2.654
558.22	3.139
558.42	3.045
558.61	2.373
558.81	2.343
559.01	2.217
559.21	2.188
559.40	2.191
559.60	2.207
559.80	2.107
559.99	2.120
560.19	2.133
560.39	2.019
560.58	1.993
560.78	2.003
560.97	2.064
561.17	2.046
561.37	2.021
561.56	2.047
561.76	2.075
561.96	2.080
562.15	2.052
562.35	2.111
562.55	2.117
562.74	2.135
562.94	2.115
563.14	2.072
563.33	2.094
563.53	2.094
563.73	2.052
563.92	2.071
564.12	2.087
564.31	2.131
564.51	2.084
564.71	2.120
564.90	2.132
565.10	2.133
565.30	2.225
565.49	2.224
565.69	2.257
565.89	2.269
566.08	2.186
566.28	2.244
566.47	2.252
566.67	2.199
566.87	2.142
567.06	2.192
567.26	2.402
567.46	2.240
567.65	2.213
567.85	2.235
568.04	2.291
568.24	2.264
568.44	2.174
568.63	2.140
568.83	2.173
569.02	2.145
569.22	2.063
569.42	1.996
569.61	2.020
569.81	2.004
570.00	1.982
570.20	1.999
570.40	2.023
570.59	2.029
570.79	1.997
570.98	1.962
571.18	1.974
571.38	1.967
571.57	1.930
571.77	1.908
571.96	1.955
572.16	1.927
572.35	1.869
572.55	1.884
572.75	1.868
572.94	1.869
573.14	1.858
573.33	1.863
573.53	1.867
573.73	1.857
573.92	1.843
574.12	1.821
574.31	1.843
574.51	1.847
574.70	1.802
574.90	1.814
575.09	1.840
575.29	1.837
575.49	1.812
575.68	1.828
575.88	1.841
576.07	1.857
576.27	1.833
576.46	1.817
576.66	1.809
576.86	1.810
577.05	1.796
577.25	1.784
577.44	1.803
577.64	1.800
577.83	1.778
578.03	1.782
578.22	1.765
578.42	1.762
578.61	1.750
578.81	1.760
579.00	1.763
579.20	1.758
579.40	1.747
579.59	1.737
579.79	1.742
579.98	1.741
580.18	1.748
580.37	1.758
580.57	1.780
580.76	1.843
580.96	1.826
581.15	1.839
581.35	1.851
581.54	1.843
581.74	1.834
581.93	1.854
582.13	1.863
582.32	1.828
582.52	1.808
582.71	1.798
582.91	1.748
583.10	1.749
583.30	1.736
583.49	1.734
583.69	1.766
583.88	1.780
584.08	1.763
584.27	1.785
584.47	1.809
584.66	1.816
584.86	1.805
585.05	1.818
585.25	1.841
585.44	1.837
585.64	1.831
585.83	1.804
586.03	1.815
586.22	1.811
586.42	1.781
586.61	1.811
586.81	1.841
587.00	1.843
587.20	1.825
587.39	1.833
587.59	1.852
587.78	1.856
587.98	1.860
588.17	1.858
588.37	1.877
588.56	1.886
588.76	1.829
588.95	1.820
589.15	1.867
589.34	1.894
589.54	1.870
589.73	1.874
589.92	1.899
590.12	1.884
590.31	1.858
590.51	1.926
590.70	1.940
590.90	1.947
591.09	1.918
591.29	1.878
591.48	1.867
591.68	1.883
591.87	1.870
592.06	1.867
592.26	1.912
592.45	1.904
592.65	1.824
592.84	1.828
593.04	1.852
593.23	1.885
593.43	1.872
593.62	1.875
593.81	1.886
594.01	1.882
594.20	1.868
594.40	1.851
594.59	1.871
594.79	1.888
594.98	1.874
595.17	1.857
595.37	1.861
595.56	1.869
595.76	1.862
595.95	1.867
596.14	1.892
596.34	1.894
596.53	1.868
596.73	1.875
596.92	1.873
597.12	1.897
597.31	1.902
597.50	1.884
597.70	1.908
597.89	1.892
598.09	1.859
598.28	1.874
598.47	1.912
598.67	1.904
598.86	1.882
599.06	1.922
599.25	1.925
599.44	1.906
599.64	1.887
599.83	1.871
600.03	1.919
600.22	1.924
600.41	1.935
600.61	1.897
600.80	1.925
601.00	1.925
601.19	1.879
601.38	1.855
601.58	1.871
601.77	1.884
601.96	1.910
602.16	1.889
602.35	2.018
602.55	1.970
602.74	1.976
602.93	1.984
603.13	2.043
603.32	2.041
603.51	2.046
603.71	2.109
603.90	2.113
604.09	2.112
604.29	2.070
604.48	1.960
604.68	1.972
604.87	1.958
605.06	1.929
605.26	1.891
605.45	1.899
605.64	1.892
605.84	1.841
606.03	1.845
606.22	1.830
606.42	1.829
606.61	1.805
606.80	1.810
607.00	1.843
607.19	1.844
607.38	1.842
607.58	1.871
607.77	1.895
607.96	1.899
608.16	1.892
608.35	1.972
608.54	2.026
608.74	2.084
608.93	2.228
609.12	2.268
609.32	2.330
609.51	2.391
609.70	2.296
609.90	2.350
610.09	2.466
610.28	2.690
610.48	2.318
610.67	2.325
610.86	2.312
611.06	2.122
611.25	2.069
611.44	2.069
611.64	2.072
611.83	2.134
612.02	2.076
612.21	2.054
612.41	2.017
612.60	2.015
612.79	1.963
612.99	1.971
613.18	2.011
613.37	1.984
613.57	1.975
613.76	2.003
613.95	1.968
614.14	1.964
614.34	1.940
614.53	1.954
614.72	1.994
614.92	2.011
615.11	1.973
615.30	1.923
615.49	1.954
615.69	1.982
615.88	1.942
616.07	1.959
616.26	1.987
616.46	2.002
616.65	1.964
616.84	1.948
617.04	1.945
617.23	1.990
617.42	1.996
617.61	2.031
617.81	2.008
618.00	2.021
618.19	1.988
618.38	2.050
618.58	2.103
618.77	2.125
618.96	2.110
619.15	2.162
619.35	2.198
619.54	2.209
619.73	2.119
619.92	2.170
620.12	2.258
620.31	2.285
620.50	2.142
620.69	2.134
620.89	2.186
621.08	2.191
621.27	2.179
621.46	2.133
621.66	2.223
621.85	2.235
622.04	2.171
622.23	2.223
622.43	2.218
622.62	2.229
622.81	2.234
623.00	2.230
623.19	2.313
623.39	2.298
623.58	2.244
623.77	2.212
623.96	2.265
624.16	2.299
624.35	2.176
624.54	2.262
624.73	2.357
624.92	2.286
625.12	2.225
625.31	2.229
625.50	2.285
625.69	2.293
625.88	2.221
626.08	2.219
626.27	2.225
626.46	2.204
626.65	2.136
626.84	2.126
627.04	2.243
627.23	2.250
627.42	2.165
627.61	2.210
627.80	2.249
628.00	2.285
628.19	2.247
628.38	2.327
628.57	2.420
628.76	2.419
628.96	2.359
629.15	2.350
629.34	2.455
629.53	2.467
629.72	2.299
629.91	2.332
630.11	2.426
630.30	2.426
630.49	2.616
630.68	2.597
630.87	2.736
631.06	2.856
631.26	2.545
631.45	2.603
631.64	-0.000
631.83	-0.000
632.02	-0.000
632.21	3.226
632.41	-0.000
632.60	3.011
632.79	2.860
632.98	2.984
633.17	2.966
633.36	3.172
633.55	2.752
633.75	2.471
633.94	2.490
634.13	2.477
634.32	2.426
634.51	2.237
634.70	2.282
634.89	2.286
635.09	2.212
635.28	2.236
635.47	2.248
635.66	2.342
635.85	2.266
636.04	2.349
636.23	2.544
636.43	2.553
636.62	2.588
636.81	2.572
637.00	2.623
637.19	2.821
637.38	2.684
637.57	2.779
637.76	3.004
637.95	3.025
638.15	2.638
638.34	2.468
638.53	2.604
638.72	2.631
638.91	2.554
639.10	2.525
639.29	2.460
639.48	2.442
639.67	2.423
639.87	2.347
640.06	2.637
640.25	2.646
640.44	2.709
640.63	2.825
640.82	3.049
641.01	3.009
641.20	3.054
641.39	-0.000
641.58	-0.000
641.78	-0.000
641.97	-0.000
642.16	-0.000
642.35	-0.000
642.54	-0.000
642.73	-0.000
642.92	-0.000
643.11	-0.000
643.30	-0.000
643.49	-0.000
643.68	-0.000
643.87	-0.000
644.06	-0.000
644.25	2.406
644.45	2.614
644.64	2.740
644.83	2.772
645.02	2.625
645.21	2.576
645.40	2.528
645.59	2.537
645.78	2.381
645.97	2.467
646.16	2.497
646.35	2.457
646.54	2.363
646.73	2.423
646.92	2.544
647.11	2.513
647.30	2.403
647.49	2.553
647.68	2.496
647.88	2.484
648.07	2.318
648.26	2.464
648.45	2.468
648.64	2.398
648.83	2.320
649.02	2.395
649.21	4.144
649.40	3.664
649.59	2.798
649.78	3.212
649.97	-0.000
650.16	-0.000
650.35	-0.000
650.54	-0.000
650.73	-0.000
650.92	-0.000
651.11	-0.000
651.30	-0.000
651.49	-0.000
651.68	-0.000
651.87	-0.000
652.06	2.824
652.25	3.001
652.44	3.042
652.63	2.442
652.82	2.378
653.01	2.362
653.20	2.293
653.39	2.044
653.58	2.017
653.77	2.025
653.96	1.979
654.15	1.899
654.34	1.901
654.53	1.881
654.72	1.848
654.91	1.778
655.10	1.757
655.29	1.750
655.48	1.737
655.67	1.700
655.86	1.684
656.05	1.680
656.24	1.683
656.43	1.651
656.62	1.660
656.81	1.684
657.00	1.679
657.19	1.674
657.38	1.682
657.57	1.695
657.76	1.729
657.95	1.721
658.14	1.762
658.33	1.800
658.51	1.865
658.70	1.851
658.89	1.827
659.08	1.900
659.27	1.978
659.46	1.959
659.65	2.014
659.84	2.062
660.03	2.111
660.22	2.103
660.41	2.183
660.60	2.156
660.79	2.205
660.98	2.467
661.17	2.349
661.36	2.285
661.55	2.335
661.74	2.247
661.92	2.321
662.11	2.365
662.30	2.304
662.49	2.134
662.68	2.123
662.87	2.140
663.06	2.002
663.25	2.058
663.44	2.064
663.63	2.077
663.82	2.078
664.01	1.970
664.20	1.959
664.38	1.989
664.57	1.997
664.76	1.994
664.95	2.028
665.14	2.111
665.33	2.042
665.52	2.285
665.71	2.505
665.90	2.537
666.09	2.828
666.28	2.694
666.46	2.523
666.65	2.533
666.84	2.511
667.03	2.334
667.22	2.304
667.41	2.419
667.60	2.090
667.79	1.959
667.98	1.984
668.16	1.989
668.35	1.995
668.54	1.969
668.73	1.996
668.92	2.010
669.11	1.999
669.30	1.929
669.49	1.878
669.67	1.922
669.86	1.974
670.05	1.938
670.24	1.909
670.43	1.895
670.62	1.895
670.81	1.842
671.00	1.852
671.18	1.841
671.37	1.834
671.56	1.812
671.75	1.793
671.94	1.764
672.13	1.754
672.32	1.715
672.50	1.713
672.69	1.711
672.88	1.722
673.07	1.689
673.26	1.712
673.45	1.721
673.63	1.726
673.82	1.705
674.01	1.719
674.20	1.713
674.39	1.712
674.58	1.709
674.76	1.719
674.95	1.712
675.14	1.712
675.33	1.687
675.52	1.678
675.71	1.681
675.89	1.678
676.08	1.653
676.27	1.653
676.46	1.660
676.65	1.660
676.84	1.657
677.02	1.670
677.21	1.680
677.40	1.675
677.59	1.670
677.78	1.672
677.96	1.695
678.15	1.691
678.34	1.687
678.53	1.697
678.72	1.691
678.90	1.676
679.09	1.657
679.28	1.646
679.47	1.645
679.66	1.636
679.84	1.626
680.03	1.610
680.22	1.607
680.41	1.625
680.60	1.605
680.78	1.609
680.97	1.623
681.16	1.620
681.35	1.612
681.53	1.608
681.72	1.621
681.91	1.632
682.10	1.619
682.29	1.638
682.47	1.615
682.66	1.593
682.85	1.581
683.04	1.573
683.22	1.570
683.41	1.589
683.60	1.586
683.79	1.593
683.97	1.585
684.16	1.584
684.35	1.564
684.54	1.581
684.72	1.601
684.91	1.611
685.10	1.596
685.29	1.613
685.47	1.594
685.66	1.593
685.85	1.572
686.04	1.572
686.22	1.587
686.41	1.611
686.60	1.586
686.79	1.614
686.97	1.618
687.16	1.635
687.35	1.616
687.54	1.646
687.72	1.672
687.91	1.671
688.10	1.696
688.29	1.699
688.47	1.671
688.66	1.677
688.85	1.641
689.03	1.629
689.22	1.678
689.41	1.682
689.60	1.644
689.78	1.629
689.97	1.635
690.16	1.615
690.34	1.593
690.53	1.601
690.72	1.602
690.91	1.597
691.09	1.586
691.28	1.541
691.47	1.535
691.65	1.534
691.84	1.518
692.03	1.516
692.21	1.505
692.40	1.506
692.59	1.493
692.77	1.490
692.96	1.497
693.15	1.504
693.34	1.491
693.52	1.493
693.71	1.495
693.90	1.502
694.08	1.511
694.27	1.518
694.46	1.601
694.64	1.604
694.83	1.597
695.02	1.591
695.20	1.592
695.39	1.592
695.58	1.589
695.76	1.593
695.95	1.585
696.14	1.576
696.32	1.562
696.51	1.486
696.70	1.487
696.88	1.497
697.07	1.489
697.26	1.497
697.44	1.506
697.63	1.500
697.81	1.490
698.00	1.497
698.19	1.493
698.37	1.494
698.56	1.491
698.75	1.493
698.93	1.488
699.12	1.491
699.31	1.485
699.49	1.478
699.68	1.486
699.87	1.503
700.05	1.499
700.24	1.494
700.42	1.502
700.61	1.504
700.80	1.492
700.98	1.499
701.17	1.501
701.36	1.495
701.54	1.493
701.73	1.501
701.91	1.485
702.10	1.483
702.29	1.481
702.47	1.477
702.66	1.488
702.84	1.499
703.03	1.486
703.22	1.504
703.40	1.505
703.59	1.524
703.77	1.527
703.96	1.530
704.15	1.538
704.33	1.536
704.52	1.534
704.70	1.523
704.89	1.520
705.08	1.516
705.26	1.493
705.45	1.488
705.63	1.478
705.82	1.461
706.00	1.453
706.19	1.452
706.38	1.451
706.56	1.449
706.75	1.444
706.93	1.438
707.12	1.443
707.30	1.443
707.49	1.437
707.68	1.428
707.86	1.424
708.05	1.424
708.23	1.413
708.42	1.417
708.60	1.436
708.79	1.435
708.98	1.431
709.16	1.429
709.35	1.444
709.53	1.474
709.72	1.471
709.90	1.483
710.09	1.494
710.27	1.502
710.46	1.533
710.64	1.512
710.83	1.515
711.02	1.526
711.20	1.522
711.39	1.508
711.57	1.481
711.76	1.481
711.94	1.473
712.13	1.481
712.31	1.477
712.50	1.446
712.68	1.439
712.87	1.450
713.05	1.447
713.24	1.447
713.42	1.441
713.61	1.441
713.79	1.452
713.98	1.447
714.16	1.453
714.35	1.451
714.54	1.458
714.72	1.457
714.91	1.444
715.09	1.494
715.28	1.509
715.46	1.512
715.65	1.501
715.83	1.500
716.02	1.521
716.20	1.494
716.39	1.497
716.57	1.506
716.76	1.519
716.94	1.528
717.12	1.468
717.31	1.483
717.49	1.504
717.68	1.523
717.86	1.516
718.05	1.523
718.23	1.540
718.42	1.550
718.60	1.566
718.79	1.654
718.97	1.669
719.16	1.669
719.34	1.652
719.53	1.648
719.71	1.646
719.90	1.660
720.08	1.638
720.27	1.641
720.45	1.643
720.63	1.617
720.82	1.552
721.00	1.573
721.19	1.590
721.37	1.576
721.56	1.573
721.74	1.589
721.93	1.665
722.11	1.729
722.30	1.725
722.48	1.763
722.66	1.758
722.85	1.731
723.03	1.726
723.22	1.724
723.40	1.760
723.59	1.750
723.77	1.808
723.95	1.711
724.14	1.730
724.32	1.737
724.51	1.729
724.69	1.757
724.88	1.755
725.06	1.726
725.24	1.725
725.43	1.739
725.61	1.775
725.80	1.695
725.98	1.697
726.16	1.659
726.35	1.715
726.53	1.700
726.72	1.686
726.90	1.820
727.09	1.837
727.27	1.942
727.45	1.881
727.64	2.025
727.82	2.183
728.01	2.266
728.19	2.204
728.37	2.405
728.56	2.613
728.74	-0.000
728.92	2.325
729.11	2.421
729.29	2.267
729.48	2.339
729.66	2.023
729.84	2.008
730.03	2.041
730.21	2.063
730.40	1.872
730.58	1.875
730.76	1.840
730.95	1.859
731.13	1.843
731.31	2.075
731.50	2.245
731.68	2.411
731.86	2.342
732.05	-0.000
732.23	-0.000
732.42	-0.000
732.60	-0.000
732.78	-0.000
732.97	-0.000
733.15	-0.000
733.33	-0.000
733.52	-0.000
733.70	-0.000
733.88	-0.000
734.07	-0.000
734.25	-0.000
734.43	-0.000
734.62	-0.000
734.80	-0.000
734.98	-0.000
735.17	-0.000
735.35	-0.000
735.53	-0.000
735.72	-0.000
735.90	-0.000
736.08	-0.000
736.27	-0.000
736.45	-0.000
736.63	-0.000
736.82	-0.000
737.00	-0.000
737.18	-0.000
737.37	-0.000
737.55	-0.000
737.73	-0.000
737.92	-0.000
738.10	-0.000
738.28	-0.000
738.46	-0.000
738.65	-0.000
738.83	-0.000
739.01	-0.000
739.20	-0.000
739.38	-0.000
739.56	-0.000
739.75	-0.000
739.93	-0.000
740.11	-0.000
740.29	-0.000
740.48	-0.000
740.66	-0.000
740.84	-0.000
741.03	-0.000
741.21	-0.000
741.39	-0.000
741.57	-0.000
741.76	-0.000
741.94	-0.000
742.12	-0.000
742.31	-0.000
742.49	-0.000
742.67	-0.000
742.85	-0.000
743.04	-0.000
743.22	-0.000
743.40	-0.000
743.58	-0.000
743.77	-0.000
743.95	-0.000
744.13	-0.000
744.31	-0.000
744.50	-0.000
744.68	-0.000
744.86	-0.000
745.04	-0.000
745.23	-0.000
745.41	-0.000
745.59	-0.000
745.77	-0.000
745.96	-0.000
746.14	-0.000
746.32	-0.000
746.50	-0.000
746.69	-0.000
746.87	-0.000
747.05	-0.000
747.23	-0.000
747.42	-0.000
747.60	-0.000
747.78	-0.000
747.96	-0.000
748.14	-0.000
748.33	-0.000
748.51	-0.000
748.69	-0.000
748.87	-0.000
749.06	-0.000
749.24	-0.000
749.42	-0.000
749.60	-0.000
749.78	-0.000
749.97	-0.000
750.15	-0.000
750.33	-0.000
750.51	-0.000
750.69	-0.000
750.88	-0.000
751.06	-0.000
751.24	-0.000
751.42	-0.000
751.60	-0.000
751.79	-0.000
751.97	-0.000
752.15	-0.000
752.33	-0.000
752.51	-0.000
752.69	-0.000
752.88	-0.000
753.06	-0.000
753.24	-0.000
753.42	-0.000
753.60	-0.000
753.78	-0.000
753.97	-0.000
754.15	-0.000
754.33	-0.000
754.51	-0.000
754.69	-0.000
754.87	-0.000
755.06	-0.000
755.24	-0.000
755.42	-0.000
755.60	-0.000
755.78	-0.000
755.96	-0.000
756.15	-0.000
756.33	-0.000
756.51	-0.000
756.69	-0.000
756.87	-0.000
757.05	-0.000
757.23	-0.000
757.42	-0.000
757.60	-0.000
757.78	-0.000
757.96	-0.000
758.14	-0.000
758.32	-0.000
758.50	-0.000
758.69	-0.000
758.87	-0.000
759.05	-0.000
759.23	-0.000
759.41	-0.000
759.59	-0.000
759.77	-0.000
759.95	-0.000
760.13	-0.000
760.32	-0.000
760.50	-0.000
760.68	-0.000
760.86	-0.000
761.04	-0.000
761.22	-0.000
761.40	-0.000
761.58	-0.000
761.76	-0.000
761.95	-0.000
762.13	-0.000
762.31	-0.000
762.49	-0.000
762.67	-0.000
762.85	-0.000
763.03	-0.000
763.21	-0.000
763.39	-0.000
763.57	-0.000
763.75	-0.000
763.94	-0.000
764.12	-0.000
764.30	-0.000
764.48	-0.000
764.66	-0.000
764.84	-0.000
765.02	-0.000
765.20	-0.000
765.38	-0.000
765.56	-0.000
765.74	-0.000
765.92	-0.000
766.10	-0.000
766.28	-0.000
766.46	-0.000
766.65	-0.000
766.83	-0.000
767.01	-0.000
767.19	-0.000
767.37	-0.000
767.55	-0.000
767.73	-0.000
767.91	-0.000
768.09	-0.000
768.27	-0.000
768.45	-0.000
768.63	-0.000
768.81	-0.000
768.99	-0.000
769.17	-0.000
769.35	-0.000
769.53	-0.000
769.71	-0.000
769.89	-0.000
770.07	-0.000
770.25	-0.000
770.43	-0.000
770.61	-0.000
770.79	-0.000
770.97	-0.000
771.15	-0.000
771.33	-0.000
771.51	-0.000
771.69	-0.000
771.87	-0.000
772.05	-0.000
772.24	-0.000
772.42	-0.000
772.60	-0.000
772.78	-0.000
772.96	-0.000
773.14	-0.000
773.32	-0.000
773.49	-0.000
773.67	-0.000
773.85	-0.000
774.03	-0.000
774.21	-0.000
774.39	-0.000
774.57	-0.000
774.75	-0.000
774.93	-0.000
775.11	-0.000
775.29	-0.000
775.47	-0.000
775.65	-0.000
775.83	-0.000
776.01	-0.000
776.19	-0.000
776.37	-0.000
776.55	-0.000
776.73	-0.000
776.91	-0.000
777.09	-0.000
777.27	-0.000
777.45	-0.000
777.63	-0.000
777.81	-0.000
777.99	-0.000
778.17	-0.000
778.35	-0.000
778.53	-0.000
778.71	-0.000
778.89	-0.000
779.07	-0.000
779.24	-0.000
779.42	-0.000
779.60	-0.000
779.78	-0.000
779.96	-0.000
780.14	-0.000
780.32	-0.000
780.50	-0.000
780.68	-0.000
780.86	-0.000
781.04	-0.000
781.22	-0.000
781.40	-0.000
781.58	-0.000
781.75	-0.000
781.93	-0.000
782.11	-0.000
782.29	-0.000
782.47	-0.000
782.65	-0.000
782.83	-0.000
783.01	-0.000
783.19	-0.000
783.37	-0.000
783.55	-0.000
783.72	-0.000
783.90	-0.000
784.08	-0.000
784.26	-0.000
784.44	-0.000
784.62	-0.000
784.80	-0.000
784.98	-0.000
785.16	-0.000
785.33	-0.000
785.51	-0.000
785.69	-0.000
785.87	-0.000
786.05	-0.000
786.23	-0.000
786.41	-0.000
786.59	-0.000
786.77	-0.000
786.94	-0.000
787.12	-0.000
787.30	-0.000
787.48	-0.000
787.66	-0.000
787.84	-0.000
788.02	-0.000
788.19	-0.000
788.37	-0.000
788.55	-0.000
788.73	-0.000
788.91	-0.000
789.09	-0.000
789.27	-0.000
789.44	-0.000
789.62	-0.000
789.80	-0.000
789.98	-0.000
790.16	-0.000
790.34	-0.000
790.51	-0.000
790.69	-0.000
790.87	-0.000
791.05	-0.000
791.23	-0.000
791.41	-0.000
791.58	-0.000
791.76	-0.000
791.94	-0.000
792.12	-0.000
792.30	-0.000
792.48	-0.000
792.65	-0.000
792.83	-0.000
793.01	-0.000
793.19	-0.000
793.37	-0.000
793.54	-0.000
793.72	-0.000
793.90	-0.000
794.08	-0.000
794.26	-0.000
794.43	-0.000
794.61	-0.000
794.79	-0.000
794.97	-0.000
795.15	-0.000
795.32	-0.000
795.50	-0.000
795.68	-0.000
795.86	-0.000
796.04	-0.000
796.21	-0.000
796.39	-0.000
796.57	-0.000
796.75	-0.000
796.92	-0.000
797.10	-0.000
797.28	-0.000
797.46	-0.000
797.64	-0.000
797.81	-0.000
797.99	-0.000
798.17	-0.000
798.35	-0.000
798.52	-0.000
798.70	-0.000
798.88	-0.000
799.06	-0.000
799.23	-0.000
799.41	-0.000
799.59	-0.000
799.77	-0.000
799.94	-0.000
800.12	-0.000
800.30	-0.000
800.48	-0.000
800.65	-0.000
800.83	-0.000
801.01	-0.000
801.19	-0.000
801.36	-0.000
801.54	-0.000
801.72	-0.000
801.90	-0.000
802.07	-0.000
802.25	-0.000
802.43	-0.000
802.60	-0.000
802.78	-0.000
802.96	-0.000
803.14	-0.000
803.31	-0.000
803.49	-0.000
803.67	-0.000
803.84	-0.000
804.02	-0.000
804.20	-0.000
804.38	-0.000
804.55	-0.000
804.73	-0.000
804.91	-0.000
805.08	-0.000
805.26	-0.000
805.44	-0.000
805.61	-0.000
805.79	-0.000
805.97	-0.000
806.15	-0.000
806.32	-0.000
806.50	-0.000
806.68	-0.000
806.85	-0.000
807.03	-0.000
807.21	-0.000
807.38	-0.000
807.56	-0.000
807.74	-0.000
807.91	-0.000
808.09	-0.000
808.27	-0.000
808.44	-0.000
808.62	-0.000
808.80	-0.000
808.97	-0.000
809.15	-0.000
809.33	-0.000
809.50	-0.000
809.68	-0.000
809.86	-0.000
810.03	-0.000
810.21	-0.000
810.39	-0.000
810.56	-0.000
810.74	-0.000
810.91	-0.000
811.09	-0.000
811.27	-0.000
811.44	-0.000
811.62	-0.000
811.80	-0.000
811.97	-0.000
812.15	-0.000
812.33	-0.000
812.50	-0.000
812.68	-0.000
812.85	-0.000
813.03	-0.000
813.21	-0.000
813.38	-0.000
813.56	-0.000
813.74	-0.000
813.91	-0.000
814.09	-0.000
814.26	-0.000
814.44	-0.000
814.62	-0.000
814.79	-0.000
814.97	-0.000
815.14	-0.000
815.32	-0.000
815.50	-0.000
815.67	-0.000
815.85	-0.000
816.02	-0.000
816.20	-0.000
816.38	-0.000
816.55	-0.000
816.73	-0.000
816.90	-0.000
817.08	-0.000
817.26	-0.000
817.43	-0.000
817.61	-0.000
817.78	-0.000
817.96	-0.000
818.13	-0.000
818.31	-0.000
818.49	-0.000
818.66	-0.000
818.84	-0.000
819.01	-0.000
819.19	-0.000
819.36	-0.000
819.54	-0.000
819.71	-0.000
819.89	-0.000
820.07	-0.000
820.24	-0.000
820.42	-0.000
820.59	-0.000
820.77	-0.000
820.94	-0.000
821.12	-0.000
821.29	-0.000
821.47	-0.000
821.64	-0.000
821.82	-0.000
822.00	-0.000
822.17	-0.000
822.35	-0.000
822.52	-0.000
822.70	-0.000
822.87	-0.000
823.05	-0.000
823.22	-0.000
823.40	-0.000
823.57	-0.000
823.75	-0.000
823.92	-0.000
824.10	-0.000
824.27	-0.000
824.45	-0.000
824.62	-0.000
824.80	-0.000
824.97	-0.000
825.15	-0.000
825.32	-0.000
825.50	-0.000
825.67	-0.000
825.85	-0.000
826.02	-0.000
826.20	-0.000
826.37	-0.000
826.55	-0.000
826.72	-0.000
826.90	-0.000
827.07	-0.000
827.25	-0.000
827.42	-0.000
827.60	-0.000
827.77	-0.000
827.95	-0.000
828.12	-0.000
828.30	-0.000
828.47	-0.000
828.65	-0.000
828.82	-0.000
829.00	-0.000
829.17	-0.000
829.34	-0.000
829.52	-0.000
829.69	-0.000
829.87	-0.000
830.04	-0.000
830.22	-0.000
830.39	-0.000
830.57	-0.000
830.74	-0.000
830.92	-0.000
831.09	-0.000
831.26	-0.000
831.44	-0.000
831.61	-0.000
831.79	-0.000
831.96	-0.000
832.14	-0.000
832.31	-0.000
832.49	-0.000
832.66	-0.000
832.83	-0.000
833.01	-0.000
833.18	-0.000
833.36	-0.000
833.53	-0.000
833.70	-0.000
833.88	-0.000
834.05	-0.000
834.23	-0.000
834.40	-0.000
834.58	-0.000
834.75	-0.000
834.92	-0.000
835.10	-0.000
835.27	-0.000
835.45	-0.000
835.62	-0.000
835.79	-0.000
835.97	-0.000
836.14	-0.000
836.32	-0.000
836.49	-0.000
836.66	-0.000
836.84	-0.000
837.01	-0.000
837.18	-0.000
837.36	-0.000
837.53	-0.000
837.71	-0.000
837.88	-0.000
838.05	-0.000
838.23	-0.000
838.40	-0.000
838.58	-0.000
838.75	-0.000
838.92	-0.000
839.10	-0.000
839.27	-0.000
839.44	-0.000
839.62	-0.000
839.79	-0.000
839.96	-0.000
840.14	-0.000
840.31	-0.000
840.48	-0.000
840.66	-0.000
840.83	-0.000
841.01	-0.000
841.18	-0.000
841.35	-0.000
841.53	-0.000
841.70	-0.000
841.87	-0.000
842.05	-0.000
842.22	-0.000
842.39	-0.000
842.57	-0.000
842.74	-0.000
842.91	-0.000
843.09	-0.000
843.26	-0.000
843.43	-0.000
843.60	-0.000
843.78	-0.000
843.95	-0.000
844.12	-0.000
844.30	-0.000
844.47	-0.000
844.64	-0.000
844.82	-0.000
844.99	-0.000
845.16	-0.000
845.34	-0.000
845.51	-0.000
845.68	-0.000
845.85	-0.000
846.03	-0.000
846.20	-0.000
846.37	-0.000
846.55	-0.000
846.72	-0.000
846.89	-0.000
847.06	-0.000
847.24	-0.000
847.41	-0.000
847.58	-0.000
847.76	-0.000
847.93	-0.000
848.10	-0.000
848.27	-0.000
848.45	-0.000
848.62	-0.000
848.79	-0.000
848.97	-0.000
849.14	-0.000
849.31	-0.000
849.48	-0.000
849.66	-0.000
849.83	-0.000
850.00	-0.000
850.17	-0.000
850.35	-0.000
850.52	-0.000
850.69	-0.000
850.86	-0.000
851.04	-0.000
851.21	-0.000
851.38	-0.000
851.55	-0.000
851.72	-0.000
851.90	-0.000
852.07	-0.000
852.24	-0.000
852.41	-0.000
852.59	-0.000
852.76	-0.000
852.93	-0.000
853.10	-0.000
853.28	-0.000
853.45	-0.000
853.62	-0.000
853.79	-0.000
853.96	-0.000
854.14	-0.000
854.31	-0.000
854.48	-0.000
854.65	-0.000
854.82	-0.000
855.00	-0.000
855.17	-0.000
855.34	-0.000
855.51	-0.000
855.68	-0.000
855.86	-0.000
856.03	-0.000
856.20	-0.000
856.37	-0.000
856.54	-0.000
856.72	-0.000
856.89	-0.000
857.06	-0.000
857.23	-0.000
857.40	-0.000
857.57	-0.000
857.75	-0.000
857.92	-0.000
858.09	-0.000
858.26	-0.000
858.43	-0.000
858.60	-0.000
858.78	-0.000
858.95	-0.000
859.12	-0.000
859.29	-0.000
859.46	-0.000
859.63	-0.000
859.81	-0.000
859.98	-0.000
860.15	-0.000
860.32	-0.000
860.49	-0.000
860.66	-0.000
860.83	-0.000
861.01	-0.000
861.18	-0.000
861.35	-0.000
861.52	-0.000
861.69	-0.000
861.86	-0.000
862.03	-0.000
862.21	-0.000
862.38	-0.000
862.55	-0.000
862.72	-0.000
862.89	-0.000
863.06	-0.000
863.23	-0.000
863.40	-0.000
863.58	-0.000
863.75	-0.000
863.92	-0.000
864.09	-0.000
864.26	-0.000
864.43	-0.000
864.60	-0.000
864.77	-0.000
864.94	-0.000
865.11	-0.000
865.29	-0.000
865.46	-0.000
865.63	-0.000
865.80	-0.000
865.97	-0.000
866.14	-0.000
866.31	-0.000
866.48	-0.000
866.65	-0.000
866.82	-0.000
866.99	-0.000
867.16	-0.000
867.34	-0.000
867.51	-0.000
867.68	-0.000
867.85	-0.000
868.02	-0.000
868.19	-0.000
868.36	-0.000
868.53	-0.000
868.70	-0.000
868.87	-0.000
869.04	-0.000
869.21	-0.000
869.38	-0.000
869.55	-0.000
869.72	-0.000
869.89	-0.000
870.06	-0.000
870.24	-0.000
870.41	-0.000
870.58	-0.000
870.75	-0.000
870.92	-0.000
871.09	-0.000
871.26	-0.000
871.43	-0.000
871.60	-0.000
871.77	-0.000
871.94	-0.000
872.11	-0.000
872.28	-0.000
872.45	-0.000
872.62	-0.000
872.79	-0.000
872.96	-0.000
873.13	-0.000
873.30	-0.000
873.47	-0.000
873.64	-0.000
873.81	-0.000
873.98	-0.000
874.15	-0.000
874.32	-0.000
874.49	-0.000
874.66	-0.000
874.83	-0.000
875.00	-0.000
875.17	-0.000
875.34	-0.000
875.51	-0.000
875.68	-0.000
875.85	-0.000
876.02	-0.000
876.19	-0.000
876.36	-0.000
876.53	-0.000
876.70	-0.000
876.87	-0.000
877.04	-0.000
877.21	-0.000
877.38	-0.000
877.55	-0.000
877.72	-0.000
877.89	-0.000
878.06	-0.000
878.23	-0.000
878.39	-0.000
878.56	-0.000
878.73	-0.000
878.90	-0.000
879.07	-0.000
879.24	-0.000
879.41	-0.000
879.58	-0.000
879.75	-0.000
879.92	-0.000
880.09	-0.000
880.26	-0.000
880.43	-0.000
880.60	-0.000
880.77	-0.000
880.94	-0.000
881.11	-0.000
881.27	-0.000
881.44	-0.000
881.61	-0.000
881.78	-0.000
881.95	-0.000
882.12	-0.000
882.29	-0.000
882.46	-0.000
882.63	-0.000
882.80	-0.000
882.97	-0.000
883.14	-0.000
883.30	-0.000
883.47	-0.000
883.64	-0.000
883.81	-0.000
883.98	-0.000
884.15	-0.000
884.32	-0.000
884.49	-0.000
884.66	-0.000
884.82	-0.000
884.99	-0.000
885.16	-0.000
885.33	-0.000
885.50	-0.000
885.67	-0.000
885.84	-0.000
886.01	-0.000
886.17	-0.000
886.34	-0.000
886.51	-0.000
886.68	-0.000
886.85	-0.000
887.02	-0.000
887.19	-0.000
887.36	-0.000
887.52	-0.000
887.69	-0.000
887.86	-0.000
888.03	-0.000
888.20	-0.000
888.37	-0.000
888.54	-0.000
888.70	-0.000
888.87	-0.000
889.04	-0.000
889.21	-0.000
889.38	-0.000
889.55	-0.000
889.71	-0.000
889.88	-0.000
890.05	-0.000
890.22	-0.000
890.39	-0.000
>>>>>End Processed Spectral Data<<<<<
