SpectraSuite Data File
++++++++++++++++++++++++++++++++++++
Date: Fri Jun 19 16:12:05 CEST 2015
User: introlabs
Dark Spectrum Present: Yes
Reference Spectrum Present: Yes
Number of Sampled Component Spectra: 1
Spectrometers: USB4H08886
Integration Time (usec): 745692 (USB4H08886)
Spectra Averaged: 5 (USB4H08886)
Boxcar Smoothing: 5 (USB4H08886)
Correct for Electrical Dark: Yes (USB4H08886)
Strobe/Lamp Enabled: No (USB4H08886)
Correct for Detector Non-linearity: Yes (USB4H08886)
Correct for Stray Light: Yes (USB4H08886)
Number of Pixels in Processed Spectrum: 3648
>>>>>Begin Processed Spectral Data<<<<<
178.14	-0.000
178.36	-0.000
178.57	-0.000
178.79	-0.000
179.01	-0.000
179.22	-0.000
179.44	-0.000
179.65	-0.000
179.87	-0.000
180.08	-0.000
180.30	-0.000
180.52	-0.000
180.73	-0.000
180.95	-0.000
181.16	-0.000
181.38	-0.000
181.59	-0.000
181.81	-0.000
182.03	-0.000
182.24	-0.000
182.46	-0.000
182.67	-0.000
182.89	-0.000
183.10	-0.000
183.32	-0.000
183.54	-0.000
183.75	-0.000
183.97	-0.000
184.18	-0.000
184.40	-0.000
184.61	-0.000
184.83	-0.000
185.04	-0.000
185.26	-0.000
185.48	-0.000
185.69	-0.000
185.91	-0.000
186.12	-0.000
186.34	-0.000
186.55	-0.000
186.77	-0.000
186.98	-0.000
187.20	-0.000
187.42	-0.000
187.63	-0.000
187.85	-0.000
188.06	-0.000
188.28	-0.000
188.49	-0.000
188.71	-0.000
188.92	-0.000
189.14	-0.000
189.36	-0.000
189.57	-0.000
189.79	-0.000
190.00	-0.000
190.22	-0.000
190.43	-0.000
190.65	-0.000
190.86	-0.000
191.08	-0.000
191.29	-0.000
191.51	-0.000
191.72	-0.000
191.94	-0.000
192.16	-0.000
192.37	-0.000
192.59	-0.000
192.80	-0.000
193.02	-0.000
193.23	-0.000
193.45	-0.000
193.66	-0.000
193.88	-0.000
194.09	-0.000
194.31	-0.000
194.52	-0.000
194.74	-0.000
194.95	-0.000
195.17	-0.000
195.38	-0.000
195.60	-0.000
195.81	-0.000
196.03	-0.000
196.25	-0.000
196.46	-0.000
196.68	-0.000
196.89	-0.000
197.11	-0.000
197.32	-0.000
197.54	-0.000
197.75	-0.000
197.97	-0.000
198.18	-0.000
198.40	-0.000
198.61	-0.000
198.83	-0.000
199.04	-0.000
199.26	-0.000
199.47	-0.000
199.69	-0.000
199.90	-0.000
200.12	-0.000
200.33	-0.000
200.55	-0.000
200.76	-0.000
200.98	-0.000
201.19	-0.000
201.41	-0.000
201.62	-0.000
201.84	-0.000
202.05	-0.000
202.27	-0.000
202.48	-0.000
202.70	-0.000
202.91	-0.000
203.13	-0.000
203.34	-0.000
203.56	-0.000
203.77	-0.000
203.99	-0.000
204.20	-0.000
204.42	-0.000
204.63	-0.000
204.85	-0.000
205.06	-0.000
205.28	-0.000
205.49	-0.000
205.71	-0.000
205.92	-0.000
206.14	-0.000
206.35	-0.000
206.56	-0.000
206.78	-0.000
206.99	-0.000
207.21	-0.000
207.42	-0.000
207.64	-0.000
207.85	-0.000
208.07	-0.000
208.28	-0.000
208.50	-0.000
208.71	-0.000
208.93	-0.000
209.14	-0.000
209.36	-0.000
209.57	-0.000
209.79	-0.000
210.00	-0.000
210.22	-0.000
210.43	-0.000
210.64	-0.000
210.86	-0.000
211.07	-0.000
211.29	-0.000
211.50	-0.000
211.72	-0.000
211.93	-0.000
212.15	-0.000
212.36	-0.000
212.58	-0.000
212.79	-0.000
213.01	-0.000
213.22	-0.000
213.43	-0.000
213.65	-0.000
213.86	-0.000
214.08	-0.000
214.29	-0.000
214.51	-0.000
214.72	-0.000
214.94	-0.000
215.15	-0.000
215.36	-0.000
215.58	-0.000
215.79	-0.000
216.01	-0.000
216.22	-0.000
216.44	-0.000
216.65	-0.000
216.87	-0.000
217.08	-0.000
217.29	-0.000
217.51	-0.000
217.72	-0.000
217.94	-0.000
218.15	-0.000
218.37	-0.000
218.58	-0.000
218.80	-0.000
219.01	-0.000
219.22	-0.000
219.44	-0.000
219.65	-0.000
219.87	-0.000
220.08	-0.000
220.30	-0.000
220.51	-0.000
220.72	-0.000
220.94	-0.000
221.15	-0.000
221.37	-0.000
221.58	-0.000
221.79	-0.000
222.01	-0.000
222.22	-0.000
222.44	-0.000
222.65	-0.000
222.87	-0.000
223.08	-0.000
223.29	-0.000
223.51	-0.000
223.72	-0.000
223.94	-0.000
224.15	-0.000
224.36	-0.000
224.58	-0.000
224.79	-0.000
225.01	-0.000
225.22	-0.000
225.44	-0.000
225.65	-0.000
225.86	-0.000
226.08	-0.000
226.29	-0.000
226.51	-0.000
226.72	-0.000
226.93	-0.000
227.15	-0.000
227.36	-0.000
227.58	-0.000
227.79	-0.000
228.00	-0.000
228.22	-0.000
228.43	-0.000
228.65	-0.000
228.86	-0.000
229.07	-0.000
229.29	-0.000
229.50	-0.000
229.72	-0.000
229.93	-0.000
230.14	-0.000
230.36	-0.000
230.57	-0.000
230.78	-0.000
231.00	-0.000
231.21	-0.000
231.43	-0.000
231.64	-0.000
231.85	-0.000
232.07	-0.000
232.28	-0.000
232.50	-0.000
232.71	-0.000
232.92	-0.000
233.14	-0.000
233.35	-0.000
233.56	-0.000
233.78	-0.000
233.99	-0.000
234.21	-0.000
234.42	-0.000
234.63	-0.000
234.85	-0.000
235.06	-0.000
235.27	-0.000
235.49	-0.000
235.70	-0.000
235.91	-0.000
236.13	-0.000
236.34	-0.000
236.56	-0.000
236.77	-0.000
236.98	-0.000
237.20	-0.000
237.41	-0.000
237.62	-0.000
237.84	-0.000
238.05	-0.000
238.26	-0.000
238.48	-0.000
238.69	-0.000
238.91	-0.000
239.12	-0.000
239.33	-0.000
239.55	-0.000
239.76	-0.000
239.97	-0.000
240.19	-0.000
240.40	-0.000
240.61	-0.000
240.83	-0.000
241.04	-0.000
241.25	-0.000
241.47	-0.000
241.68	-0.000
241.89	-0.000
242.11	-0.000
242.32	-0.000
242.53	-0.000
242.75	-0.000
242.96	-0.000
243.17	-0.000
243.39	-0.000
243.60	-0.000
243.81	-0.000
244.03	-0.000
244.24	-0.000
244.45	-0.000
244.67	-0.000
244.88	-0.000
245.09	-0.000
245.31	-0.000
245.52	-0.000
245.73	-0.000
245.95	-0.000
246.16	-0.000
246.37	-0.000
246.59	-0.000
246.80	-0.000
247.01	-0.000
247.23	-0.000
247.44	-0.000
247.65	-0.000
247.87	-0.000
248.08	-0.000
248.29	-0.000
248.51	-0.000
248.72	-0.000
248.93	-0.000
249.15	-0.000
249.36	-0.000
249.57	-0.000
249.78	-0.000
250.00	-0.000
250.21	-0.000
250.42	-0.000
250.64	-0.000
250.85	-0.000
251.06	-0.000
251.28	-0.000
251.49	-0.000
251.70	-0.000
251.92	-0.000
252.13	-0.000
252.34	-0.000
252.55	-0.000
252.77	-0.000
252.98	-0.000
253.19	-0.000
253.41	-0.000
253.62	-0.000
253.83	-0.000
254.05	-0.000
254.26	-0.000
254.47	-0.000
254.68	-0.000
254.90	-0.000
255.11	-0.000
255.32	-0.000
255.54	-0.000
255.75	-0.000
255.96	-0.000
256.17	-0.000
256.39	-0.000
256.60	-0.000
256.81	-0.000
257.03	-0.000
257.24	-0.000
257.45	-0.000
257.66	-0.000
257.88	-0.000
258.09	-0.000
258.30	-0.000
258.51	-0.000
258.73	-0.000
258.94	-0.000
259.15	-0.000
259.37	-0.000
259.58	-0.000
259.79	-0.000
260.00	-0.000
260.22	-0.000
260.43	-0.000
260.64	-0.000
260.85	-0.000
261.07	-0.000
261.28	-0.000
261.49	-0.000
261.71	-0.000
261.92	-0.000
262.13	-0.000
262.34	-0.000
262.56	-0.000
262.77	-0.000
262.98	-0.000
263.19	-0.000
263.41	-0.000
263.62	-0.000
263.83	-0.000
264.04	-0.000
264.26	-0.000
264.47	-0.000
264.68	-0.000
264.89	-0.000
265.11	-0.000
265.32	-0.000
265.53	-0.000
265.74	-0.000
265.96	-0.000
266.17	-0.000
266.38	-0.000
266.59	-0.000
266.81	-0.000
267.02	-0.000
267.23	-0.000
267.44	-0.000
267.65	-0.000
267.87	-0.000
268.08	-0.000
268.29	-0.000
268.50	-0.000
268.72	-0.000
268.93	-0.000
269.14	-0.000
269.35	-0.000
269.57	-0.000
269.78	-0.000
269.99	-0.000
270.20	-0.000
270.41	-0.000
270.63	-0.000
270.84	-0.000
271.05	-0.000
271.26	-0.000
271.48	-0.000
271.69	-0.000
271.90	-0.000
272.11	-0.000
272.32	-0.000
272.54	-0.000
272.75	-0.000
272.96	-0.000
273.17	-0.000
273.39	-0.000
273.60	-0.000
273.81	-0.000
274.02	-0.000
274.23	-0.000
274.45	-0.000
274.66	-0.000
274.87	-0.000
275.08	-0.000
275.29	-0.000
275.51	-0.000
275.72	-0.000
275.93	-0.000
276.14	-0.000
276.35	-0.000
276.57	-0.000
276.78	-0.000
276.99	-0.000
277.20	-0.000
277.41	-0.000
277.63	-0.000
277.84	-0.000
278.05	-0.000
278.26	-0.000
278.47	-0.000
278.69	-0.000
278.90	-0.000
279.11	-0.000
279.32	-0.000
279.53	-0.000
279.74	-0.000
279.96	-0.000
280.17	-0.000
280.38	-0.000
280.59	-0.000
280.80	-0.000
281.02	-0.000
281.23	-0.000
281.44	-0.000
281.65	-0.000
281.86	-0.000
282.07	-0.000
282.29	-0.000
282.50	-0.000
282.71	-0.000
282.92	-0.000
283.13	-0.000
283.35	-0.000
283.56	-0.000
283.77	-0.000
283.98	-0.000
284.19	-0.000
284.40	-0.000
284.62	-0.000
284.83	-0.000
285.04	-0.000
285.25	-0.000
285.46	-0.000
285.67	-0.000
285.88	-0.000
286.10	-0.000
286.31	-0.000
286.52	-0.000
286.73	-0.000
286.94	-0.000
287.15	-0.000
287.37	-0.000
287.58	-0.000
287.79	-0.000
288.00	-0.000
288.21	-0.000
288.42	-0.000
288.63	-0.000
288.85	-0.000
289.06	-0.000
289.27	-0.000
289.48	-0.000
289.69	-0.000
289.90	-0.000
290.11	-0.000
290.33	-0.000
290.54	-0.000
290.75	-0.000
290.96	-0.000
291.17	-0.000
291.38	-0.000
291.59	-0.000
291.81	-0.000
292.02	-0.000
292.23	-0.000
292.44	-0.000
292.65	-0.000
292.86	-0.000
293.07	-0.000
293.28	-0.000
293.50	-0.000
293.71	-0.000
293.92	-0.000
294.13	-0.000
294.34	-0.000
294.55	-0.000
294.76	-0.000
294.97	-0.000
295.19	-0.000
295.40	-0.000
295.61	-0.000
295.82	-0.000
296.03	-0.000
296.24	-0.000
296.45	-0.000
296.66	-0.000
296.87	-0.000
297.09	-0.000
297.30	-0.000
297.51	-0.000
297.72	-0.000
297.93	-0.000
298.14	-0.000
298.35	-0.000
298.56	-0.000
298.77	-0.000
298.99	-0.000
299.20	-0.000
299.41	-0.000
299.62	-0.000
299.83	-0.000
300.04	-0.000
300.25	-0.000
300.46	-0.000
300.67	-0.000
300.88	-0.000
301.10	-0.000
301.31	-0.000
301.52	-0.000
301.73	-0.000
301.94	-0.000
302.15	-0.000
302.36	-0.000
302.57	-0.000
302.78	-0.000
302.99	-0.000
303.20	-0.000
303.41	-0.000
303.63	-0.000
303.84	-0.000
304.05	-0.000
304.26	-0.000
304.47	-0.000
304.68	-0.000
304.89	-0.000
305.10	-0.000
305.31	-0.000
305.52	-0.000
305.73	-0.000
305.94	-0.000
306.15	-0.000
306.37	-0.000
306.58	-0.000
306.79	-0.000
307.00	-0.000
307.21	-0.000
307.42	-0.000
307.63	-0.000
307.84	-0.000
308.05	-0.000
308.26	-0.000
308.47	-0.000
308.68	-0.000
308.89	-0.000
309.10	-0.000
309.31	-0.000
309.52	-0.000
309.73	-0.000
309.95	-0.000
310.16	-0.000
310.37	-0.000
310.58	-0.000
310.79	-0.000
311.00	-0.000
311.21	-0.000
311.42	-0.000
311.63	-0.000
311.84	-0.000
312.05	-0.000
312.26	-0.000
312.47	-0.000
312.68	-0.000
312.89	-0.000
313.10	-0.000
313.31	-0.000
313.52	-0.000
313.73	-0.000
313.94	-0.000
314.15	-0.000
314.36	-0.000
314.57	-0.000
314.78	-0.000
314.99	-0.000
315.21	-0.000
315.42	-0.000
315.63	-0.000
315.84	-0.000
316.05	-0.000
316.26	-0.000
316.47	-0.000
316.68	-0.000
316.89	-0.000
317.10	-0.000
317.31	-0.000
317.52	-0.000
317.73	-0.000
317.94	-0.000
318.15	-0.000
318.36	-0.000
318.57	-0.000
318.78	-0.000
318.99	-0.000
319.20	-0.000
319.41	-0.000
319.62	-0.000
319.83	-0.000
320.04	-0.000
320.25	-0.000
320.46	-0.000
320.67	-0.000
320.88	-0.000
321.09	-0.000
321.30	-0.000
321.51	-0.000
321.72	-0.000
321.93	-0.000
322.14	-0.000
322.35	-0.000
322.56	-0.000
322.77	-0.000
322.98	-0.000
323.19	-0.000
323.40	-0.000
323.61	-0.000
323.82	-0.000
324.03	-0.000
324.24	-0.000
324.45	-0.000
324.66	-0.000
324.87	-0.000
325.08	-0.000
325.29	-0.000
325.50	-0.000
325.71	-0.000
325.92	-0.000
326.13	-0.000
326.34	-0.000
326.55	-0.000
326.76	-0.000
326.97	-0.000
327.18	-0.000
327.39	-0.000
327.60	-0.000
327.80	-0.000
328.01	-0.000
328.22	-0.000
328.43	-0.000
328.64	-0.000
328.85	-0.000
329.06	-0.000
329.27	-0.000
329.48	-0.000
329.69	-0.000
329.90	-0.000
330.11	-0.000
330.32	-0.000
330.53	-0.000
330.74	-0.000
330.95	-0.000
331.16	-0.000
331.37	-0.000
331.58	-0.000
331.79	-0.000
332.00	-0.000
332.21	-0.000
332.42	-0.000
332.63	-0.000
332.83	-0.000
333.04	-0.000
333.25	-0.000
333.46	-0.000
333.67	-0.000
333.88	-0.000
334.09	-0.000
334.30	-0.000
334.51	-0.000
334.72	-0.000
334.93	-0.000
335.14	-0.000
335.35	-0.000
335.56	-0.000
335.77	-0.000
335.98	-0.000
336.18	-0.000
336.39	-0.000
336.60	-0.000
336.81	-0.000
337.02	-0.000
337.23	-0.000
337.44	-0.000
337.65	-0.000
337.86	-0.000
338.07	-0.000
338.28	-0.000
338.49	-0.000
338.70	-0.000
338.91	-0.000
339.11	-0.000
339.32	-0.000
339.53	-0.000
339.74	-0.000
339.95	-0.000
340.16	-0.000
340.37	-0.000
340.58	-0.000
340.79	-0.000
341.00	-0.000
341.21	-0.000
341.41	-0.000
341.62	-0.000
341.83	-0.000
342.04	-0.000
342.25	-0.000
342.46	-0.000
342.67	-0.000
342.88	-0.000
343.09	-0.000
343.30	-0.000
343.50	-0.000
343.71	-0.000
343.92	-0.000
344.13	-0.000
344.34	-0.000
344.55	-0.000
344.76	-0.000
344.97	-0.000
345.18	-0.000
345.38	-0.000
345.59	-0.000
345.80	-0.000
346.01	-0.000
346.22	-0.000
346.43	-0.000
346.64	-0.000
346.85	-0.000
347.06	-0.000
347.26	-0.000
347.47	-0.000
347.68	-0.000
347.89	-0.000
348.10	-0.000
348.31	-0.000
348.52	-0.000
348.73	-0.000
348.93	-0.000
349.14	-0.000
349.35	-0.000
349.56	-0.000
349.77	-0.000
349.98	-0.000
350.19	-0.000
350.39	-0.000
350.60	-0.000
350.81	-0.000
351.02	-0.000
351.23	-0.000
351.44	-0.000
351.65	-0.000
351.86	-0.000
352.06	-0.000
352.27	-0.000
352.48	-0.000
352.69	-0.000
352.90	-0.000
353.11	-0.000
353.31	-0.000
353.52	-0.000
353.73	-0.000
353.94	-0.000
354.15	-0.000
354.36	-0.000
354.57	-0.000
354.77	-0.000
354.98	-0.000
355.19	-0.000
355.40	-0.000
355.61	-0.000
355.82	-0.000
356.02	-0.000
356.23	-0.000
356.44	-0.000
356.65	-0.000
356.86	-0.000
357.07	-0.000
357.27	-0.000
357.48	-0.000
357.69	-0.000
357.90	-0.000
358.11	-0.000
358.32	-0.000
358.52	-0.000
358.73	-0.000
358.94	-0.000
359.15	-0.000
359.36	-0.000
359.56	-0.000
359.77	-0.000
359.98	-0.000
360.19	-0.000
360.40	-0.000
360.61	-0.000
360.81	-0.000
361.02	-0.000
361.23	-0.000
361.44	-0.000
361.65	-0.000
361.85	-0.000
362.06	-0.000
362.27	-0.000
362.48	-0.000
362.69	-0.000
362.89	-0.000
363.10	-0.000
363.31	-0.000
363.52	-0.000
363.73	-0.000
363.93	-0.000
364.14	-0.000
364.35	-0.000
364.56	-0.000
364.77	-0.000
364.97	-0.000
365.18	-0.000
365.39	-0.000
365.60	-0.000
365.81	-0.000
366.01	-0.000
366.22	-0.000
366.43	-0.000
366.64	-0.000
366.84	-0.000
367.05	-0.000
367.26	-0.000
367.47	-0.000
367.68	-0.000
367.88	-0.000
368.09	-0.000
368.30	-0.000
368.51	-0.000
368.71	-0.000
368.92	-0.000
369.13	-0.000
369.34	-0.000
369.55	-0.000
369.75	-0.000
369.96	-0.000
370.17	-0.000
370.38	-0.000
370.58	-0.000
370.79	-0.000
371.00	-0.000
371.21	-0.000
371.41	-0.000
371.62	-0.000
371.83	-0.000
372.04	-0.000
372.24	-0.000
372.45	-0.000
372.66	-0.000
372.87	-0.000
373.07	-0.000
373.28	-0.000
373.49	-0.000
373.70	-0.000
373.90	-0.000
374.11	-0.000
374.32	-0.000
374.53	-0.000
374.73	-0.000
374.94	-0.000
375.15	-0.000
375.36	-0.000
375.56	-0.000
375.77	-0.000
375.98	-0.000
376.19	-0.000
376.39	-0.000
376.60	-0.000
376.81	-0.000
377.02	-0.000
377.22	-0.000
377.43	-0.000
377.64	-0.000
377.84	-0.000
378.05	-0.000
378.26	-0.000
378.47	-0.000
378.67	-0.000
378.88	-0.000
379.09	-0.000
379.30	-0.000
379.50	-0.000
379.71	-0.000
379.92	-0.000
380.12	-0.000
380.33	-0.000
380.54	-0.000
380.75	-0.000
380.95	-0.000
381.16	-0.000
381.37	-0.000
381.57	-0.000
381.78	-0.000
381.99	-0.000
382.20	-0.000
382.40	-0.000
382.61	-0.000
382.82	-0.000
383.02	-0.000
383.23	-0.000
383.44	-0.000
383.64	-0.000
383.85	-0.000
384.06	-0.000
384.27	-0.000
384.47	-0.000
384.68	-0.000
384.89	-0.000
385.09	-0.000
385.30	-0.000
385.51	-0.000
385.71	-0.000
385.92	-0.000
386.13	-0.000
386.33	-0.000
386.54	-0.000
386.75	-0.000
386.95	-0.000
387.16	-0.000
387.37	-0.000
387.58	-0.000
387.78	-0.000
387.99	-0.000
388.20	-0.000
388.40	-0.000
388.61	-0.000
388.82	-0.000
389.02	-0.000
389.23	-0.000
389.44	-0.000
389.64	-0.000
389.85	-0.000
390.06	-0.000
390.26	-0.000
390.47	-0.000
390.68	-0.000
390.88	-0.000
391.09	-0.000
391.30	-0.000
391.50	-0.000
391.71	-0.000
391.92	-0.000
392.12	-0.000
392.33	-0.000
392.53	-0.000
392.74	-0.000
392.95	-0.000
393.15	-0.000
393.36	-0.000
393.57	-0.000
393.77	-0.000
393.98	-0.000
394.19	-0.000
394.39	-0.000
394.60	-0.000
394.81	-0.000
395.01	-0.000
395.22	-0.000
395.43	-0.000
395.63	-0.000
395.84	-0.000
396.04	-0.000
396.25	-0.000
396.46	-0.000
396.66	-0.000
396.87	-0.000
397.08	-0.000
397.28	-0.000
397.49	-0.000
397.69	-0.000
397.90	-0.000
398.11	-0.000
398.31	-0.000
398.52	-0.000
398.73	-0.000
398.93	-0.000
399.14	-0.000
399.34	-0.000
399.55	-0.000
399.76	-0.000
399.96	-0.000
400.17	-0.000
400.37	-0.000
400.58	-0.000
400.79	-0.000
400.99	-0.000
401.20	-0.000
401.41	-0.000
401.61	-0.000
401.82	-0.000
402.02	-0.000
402.23	-0.000
402.44	-0.000
402.64	-0.000
402.85	-0.000
403.05	-0.000
403.26	-0.000
403.47	-0.000
403.67	-0.000
403.88	-0.000
404.08	-0.000
404.29	-0.000
404.50	-0.000
404.70	-0.000
404.91	-0.000
405.11	-0.000
405.32	-0.000
405.52	-0.000
405.73	-0.000
405.94	-0.000
406.14	-0.000
406.35	-0.000
406.55	-0.000
406.76	-0.000
406.97	-0.000
407.17	-0.000
407.38	-0.000
407.58	-0.000
407.79	-0.000
407.99	-0.000
408.20	-0.000
408.41	-0.000
408.61	-0.000
408.82	-0.000
409.02	-0.000
409.23	-0.000
409.43	-0.000
409.64	-0.000
409.84	-0.000
410.05	-0.000
410.26	-0.000
410.46	-0.000
410.67	-0.000
410.87	-0.000
411.08	-0.000
411.28	-0.000
411.49	-0.000
411.69	-0.000
411.90	-0.000
412.11	-0.000
412.31	-0.000
412.52	-0.000
412.72	-0.000
412.93	-0.000
413.13	-0.000
413.34	-0.000
413.54	-0.000
413.75	-0.000
413.95	-0.000
414.16	-0.000
414.37	-0.000
414.57	-0.000
414.78	-0.000
414.98	-0.000
415.19	-0.000
415.39	-0.000
415.60	-0.000
415.80	-0.000
416.01	-0.000
416.21	-0.000
416.42	-0.000
416.62	-0.000
416.83	-0.000
417.03	-0.000
417.24	-0.000
417.44	-0.000
417.65	-0.000
417.86	-0.000
418.06	-0.000
418.27	-0.000
418.47	-0.000
418.68	-0.000
418.88	-0.000
419.09	-0.000
419.29	-0.000
419.50	-0.000
419.70	-0.000
419.91	-0.000
420.11	-0.000
420.32	-0.000
420.52	-0.000
420.73	-0.000
420.93	-0.000
421.14	-0.000
421.34	-0.000
421.55	-0.000
421.75	-0.000
421.96	-0.000
422.16	-0.000
422.37	-0.000
422.57	-0.000
422.78	-0.000
422.98	-0.000
423.19	-0.000
423.39	3.037
423.60	-0.000
423.80	-0.000
424.01	-0.000
424.21	-0.000
424.42	-0.000
424.62	-0.000
424.83	-0.000
425.03	-0.000
425.23	-0.000
425.44	-0.000
425.64	-0.000
425.85	-0.000
426.05	-0.000
426.26	-0.000
426.46	-0.000
426.67	3.736
426.87	-0.000
427.08	-0.000
427.28	-0.000
427.49	-0.000
427.69	-0.000
427.90	-0.000
428.10	-0.000
428.31	-0.000
428.51	-0.000
428.71	-0.000
428.92	-0.000
429.12	-0.000
429.33	-0.000
429.53	-0.000
429.74	-0.000
429.94	-0.000
430.15	-0.000
430.35	-0.000
430.56	-0.000
430.76	-0.000
430.96	-0.000
431.17	-0.000
431.37	-0.000
431.58	-0.000
431.78	-0.000
431.99	2.633
432.19	2.910
432.40	3.808
432.60	-0.000
432.80	-0.000
433.01	-0.000
433.21	-0.000
433.42	-0.000
433.62	-0.000
433.83	-0.000
434.03	-0.000
434.23	-0.000
434.44	-0.000
434.64	-0.000
434.85	-0.000
435.05	-0.000
435.26	-0.000
435.46	-0.000
435.66	-0.000
435.87	-0.000
436.07	-0.000
436.28	-0.000
436.48	-0.000
436.69	-0.000
436.89	-0.000
437.09	2.843
437.30	2.727
437.50	2.816
437.71	-0.000
437.91	-0.000
438.11	-0.000
438.32	-0.000
438.52	-0.000
438.73	-0.000
438.93	-0.000
439.13	-0.000
439.34	-0.000
439.54	-0.000
439.75	-0.000
439.95	-0.000
440.15	-0.000
440.36	-0.000
440.56	-0.000
440.77	-0.000
440.97	-0.000
441.17	-0.000
441.38	-0.000
441.58	-0.000
441.79	-0.000
441.99	-0.000
442.19	-0.000
442.40	2.861
442.60	2.823
442.81	2.666
443.01	2.635
443.21	2.679
443.42	2.677
443.62	2.548
443.82	2.505
444.03	2.641
444.23	2.634
444.44	2.683
444.64	2.670
444.84	2.965
445.05	3.040
445.25	2.819
445.45	2.823
445.66	3.160
445.86	3.123
446.06	-0.000
446.27	3.600
446.47	-0.000
446.68	-0.000
446.88	3.534
447.08	3.036
447.29	3.452
447.49	3.567
447.69	3.310
447.90	3.077
448.10	-0.000
448.30	3.207
448.51	-0.000
448.71	2.948
448.91	3.967
449.12	3.498
449.32	-0.000
449.52	-0.000
449.73	-0.000
449.93	-0.000
450.14	-0.000
450.34	-0.000
450.54	-0.000
450.75	-0.000
450.95	-0.000
451.15	-0.000
451.36	-0.000
451.56	-0.000
451.76	-0.000
451.97	-0.000
452.17	-0.000
452.37	3.166
452.58	2.739
452.78	2.709
452.98	3.111
453.19	3.285
453.39	3.635
453.59	2.978
453.79	3.170
454.00	3.360
454.20	2.994
454.40	3.303
454.61	-0.000
454.81	-0.000
455.01	-0.000
455.22	-0.000
455.42	-0.000
455.62	-0.000
455.83	3.749
456.03	-0.000
456.23	-0.000
456.44	-0.000
456.64	-0.000
456.84	-0.000
457.04	-0.000
457.25	-0.000
457.45	3.197
457.65	2.948
457.86	3.308
458.06	3.159
458.26	2.624
458.47	2.586
458.67	2.721
458.87	2.750
459.07	2.556
459.28	2.691
459.48	3.002
459.68	2.998
459.89	2.817
460.09	2.651
460.29	2.737
460.49	2.909
460.70	2.823
460.90	2.776
461.10	2.833
461.31	2.840
461.51	2.598
461.71	2.836
461.91	3.049
462.12	3.270
462.32	3.154
462.52	3.278
462.72	-0.000
462.93	-0.000
463.13	3.538
463.33	-0.000
463.53	-0.000
463.74	-0.000
463.94	2.752
464.14	2.828
464.35	2.969
464.55	2.981
464.75	2.802
464.95	2.636
465.16	2.805
465.36	2.751
465.56	2.653
465.76	2.640
465.97	2.696
466.17	2.825
466.37	2.609
466.57	2.690
466.78	2.848
466.98	2.847
467.18	2.662
467.38	2.593
467.59	2.694
467.79	2.902
467.99	2.781
468.19	2.808
468.39	3.243
468.60	3.276
468.80	2.810
469.00	2.911
469.20	3.061
469.41	3.041
469.61	2.886
469.81	2.952
470.01	2.923
470.22	2.938
470.42	2.760
470.62	2.568
470.82	2.678
471.02	2.676
471.23	2.481
471.43	2.502
471.63	2.736
471.83	2.708
472.04	2.533
472.24	2.423
472.44	2.850
472.64	2.900
472.84	2.722
473.05	2.666
473.25	2.906
473.45	2.894
473.65	2.684
473.85	2.654
474.06	2.732
474.26	2.740
474.46	2.971
474.66	2.590
474.86	2.618
475.07	2.612
475.27	2.537
475.47	2.409
475.67	2.422
475.87	2.556
476.08	2.399
476.28	2.497
476.48	2.634
476.68	2.504
476.88	2.378
477.09	2.419
477.29	2.498
477.49	2.494
477.69	2.481
477.89	2.485
478.09	2.412
478.30	2.515
478.50	2.361
478.70	2.291
478.90	2.311
479.10	2.444
479.31	2.511
479.51	2.433
479.71	2.452
479.91	2.441
480.11	2.387
480.31	2.403
480.52	2.336
480.72	2.321
480.92	2.291
481.12	2.243
481.32	2.166
481.52	2.106
481.72	2.101
481.93	2.195
482.13	2.216
482.33	2.209
482.53	2.157
482.73	2.184
482.93	2.223
483.14	2.219
483.34	2.195
483.54	2.218
483.74	2.181
483.94	2.158
484.14	2.055
484.34	2.056
484.55	2.062
484.75	2.067
484.95	2.027
485.15	2.029
485.35	2.033
485.55	2.034
485.75	2.000
485.96	2.022
486.16	2.059
486.36	2.052
486.56	2.024
486.76	2.045
486.96	2.068
487.16	2.063
487.36	2.031
487.57	2.029
487.77	2.050
487.97	2.071
488.17	2.040
488.37	2.030
488.57	2.042
488.77	2.046
488.97	2.019
489.18	1.999
489.38	2.049
489.58	2.046
489.78	2.044
489.98	2.030
490.18	2.019
490.38	2.020
490.58	1.997
490.78	2.015
490.98	2.034
491.19	2.031
491.39	2.012
491.59	1.984
491.79	2.048
491.99	2.042
492.19	2.040
492.39	2.108
492.59	2.113
492.79	2.165
492.99	2.154
493.20	2.164
493.40	2.169
493.60	2.219
493.80	2.189
494.00	2.127
494.20	2.143
494.40	2.133
494.60	2.073
494.80	2.194
495.00	2.158
495.20	2.131
495.40	2.106
495.61	2.156
495.81	2.148
496.01	2.254
496.21	2.309
496.41	2.304
496.61	2.326
496.81	2.297
497.01	2.136
497.21	2.124
497.41	2.147
497.61	2.138
497.81	2.083
498.01	2.087
498.21	2.027
498.41	1.978
498.61	1.971
498.82	1.994
499.02	2.023
499.22	2.029
499.42	2.017
499.62	2.036
499.82	2.062
500.02	2.079
500.22	2.045
500.42	2.093
500.62	2.114
500.82	2.115
501.02	2.068
501.22	2.076
501.42	2.082
501.62	2.136
501.82	2.108
502.02	2.109
502.22	2.099
502.42	2.157
502.62	2.085
502.82	2.081
503.02	2.113
503.22	2.111
503.42	2.072
503.63	2.076
503.83	2.031
504.03	2.021
504.23	1.995
504.43	2.018
504.63	2.035
504.83	2.033
505.03	2.020
505.23	2.048
505.43	2.091
505.63	2.104
505.83	2.098
506.03	2.127
506.23	2.166
506.43	2.164
506.63	2.127
506.83	2.084
507.03	2.135
507.23	2.137
507.43	2.070
507.63	2.074
507.83	2.077
508.03	2.075
508.23	2.054
508.43	2.022
508.63	2.064
508.83	2.066
509.03	2.100
509.23	2.073
509.43	2.099
509.63	2.103
509.83	2.075
510.03	2.141
510.23	2.167
510.43	2.197
510.63	2.196
510.83	2.175
511.03	2.216
511.23	2.142
511.43	2.120
511.63	2.143
511.83	2.198
512.03	2.185
512.22	2.106
512.42	2.106
512.62	2.138
512.82	2.150
513.02	2.125
513.22	2.109
513.42	2.162
513.62	2.255
513.82	2.198
514.02	2.186
514.22	2.228
514.42	2.224
514.62	2.208
514.82	2.187
515.02	2.248
515.22	2.393
515.42	2.371
515.62	2.457
515.82	2.378
516.02	2.404
516.22	2.387
516.42	2.463
516.62	2.541
516.82	2.599
517.01	2.492
517.21	2.448
517.41	2.666
517.61	2.714
517.81	2.455
518.01	2.427
518.21	2.447
518.41	2.396
518.61	2.335
518.81	2.345
519.01	2.368
519.21	2.393
519.41	2.343
519.61	2.154
519.81	2.224
520.00	2.240
520.20	2.248
520.40	2.336
520.60	2.339
520.80	2.300
521.00	2.336
521.20	2.356
521.40	2.612
521.60	2.612
521.80	2.519
522.00	2.461
522.20	2.571
522.39	2.513
522.59	2.357
522.79	2.464
522.99	2.566
523.19	2.432
523.39	2.362
523.59	2.275
523.79	2.391
523.99	2.512
524.19	2.445
524.38	2.366
524.58	2.437
524.78	2.454
524.98	2.328
525.18	2.425
525.38	2.469
525.58	2.459
525.78	2.329
525.98	2.261
526.18	2.243
526.37	2.224
526.57	2.286
526.77	2.274
526.97	2.273
527.17	2.284
527.37	2.151
527.57	2.211
527.77	2.250
527.96	2.273
528.16	2.231
528.36	2.288
528.56	2.390
528.76	2.302
528.96	2.275
529.16	2.324
529.36	2.461
529.55	2.488
529.75	2.335
529.95	2.338
530.15	2.352
530.35	2.478
530.55	2.320
530.75	2.318
530.94	2.367
531.14	2.384
531.34	2.322
531.54	2.251
531.74	2.335
531.94	2.478
532.13	2.404
532.33	2.541
532.53	2.456
532.73	2.485
532.93	2.367
533.13	2.390
533.33	2.391
533.52	2.387
533.72	2.586
533.92	2.487
534.12	2.402
534.32	2.390
534.52	2.292
534.71	2.362
534.91	2.438
535.11	2.584
535.31	2.468
535.51	2.582
535.71	2.702
535.90	2.453
536.10	2.506
536.30	2.584
536.50	2.670
536.70	2.709
536.89	2.519
537.09	2.517
537.29	2.564
537.49	2.600
537.69	2.439
537.89	2.486
538.08	2.450
538.28	2.353
538.48	2.380
538.68	2.433
538.88	2.503
539.07	2.496
539.27	2.380
539.47	2.356
539.67	2.356
539.87	2.424
540.06	2.319
540.26	2.348
540.46	2.437
540.66	2.314
540.86	2.239
541.05	2.228
541.25	2.284
541.45	2.306
541.65	2.226
541.84	2.282
542.04	2.271
542.24	2.284
542.44	2.237
542.64	2.281
542.83	2.377
543.03	2.408
543.23	2.336
543.43	2.334
543.62	2.378
543.82	2.386
544.02	2.326
544.22	2.332
544.42	2.452
544.61	2.501
544.81	2.364
545.01	2.284
545.21	2.328
545.40	2.288
545.60	2.237
545.80	2.333
546.00	2.343
546.19	2.309
546.39	2.269
546.59	2.198
546.79	2.255
546.98	2.277
547.18	2.272
547.38	2.275
547.58	2.393
547.77	2.395
547.97	2.244
548.17	2.280
548.37	2.306
548.56	2.322
548.76	2.299
548.96	2.317
549.16	2.369
549.35	2.369
549.55	2.317
549.75	2.319
549.95	2.423
550.14	2.435
550.34	2.359
550.54	2.582
550.73	2.832
550.93	2.892
551.13	2.641
551.33	2.507
551.52	2.511
551.72	2.496
551.92	2.383
552.12	2.437
552.31	2.445
552.51	2.455
552.71	2.250
552.90	2.254
553.10	2.277
553.30	2.270
553.50	2.271
553.69	2.315
553.89	2.342
554.09	2.354
554.28	2.231
554.48	2.268
554.68	2.315
554.87	2.322
555.07	2.235
555.27	2.230
555.47	2.276
555.66	2.281
555.86	2.244
556.06	2.318
556.25	2.388
556.45	3.165
556.65	3.001
556.84	-0.000
557.04	-0.000
557.24	-0.000
557.43	-0.000
557.63	-0.000
557.83	-0.000
558.02	-0.000
558.22	-0.000
558.42	-0.000
558.61	-0.000
558.81	-0.000
559.01	2.984
559.21	2.787
559.40	2.820
559.60	2.855
559.80	2.521
559.99	2.548
560.19	2.642
560.39	2.331
560.58	2.278
560.78	2.305
560.97	2.462
561.17	2.423
561.37	2.367
561.56	2.431
561.76	2.494
561.96	2.515
562.15	2.432
562.35	2.605
562.55	2.653
562.74	2.685
562.94	2.575
563.14	2.458
563.33	2.554
563.53	2.551
563.73	2.414
563.92	2.490
564.12	2.575
564.31	2.683
564.51	2.491
564.71	2.625
564.90	2.732
565.10	2.762
565.30	3.365
565.49	3.575
565.69	-0.000
565.89	-0.000
566.08	3.192
566.28	4.446
566.47	-0.000
566.67	3.574
566.87	2.863
567.06	3.308
567.26	-0.000
567.46	-0.000
567.65	3.282
567.85	3.489
568.04	-0.000
568.24	-0.000
568.44	2.908
568.63	2.715
568.83	2.958
569.02	2.807
569.22	2.477
569.42	2.326
569.61	2.404
569.81	2.365
570.00	2.300
570.20	2.361
570.40	2.430
570.59	2.450
570.79	2.362
570.98	2.281
571.18	2.320
571.38	2.301
571.57	2.204
571.77	2.153
571.96	2.256
572.16	2.205
572.35	2.083
572.55	2.108
572.75	2.079
572.94	2.076
573.14	2.045
573.33	2.059
573.53	2.071
573.73	2.062
573.92	2.038
574.12	2.006
574.31	2.047
574.51	2.049
574.70	1.975
574.90	1.989
575.09	2.038
575.29	2.042
575.49	1.987
575.68	2.015
575.88	2.039
576.07	2.062
576.27	2.017
576.46	1.990
576.66	1.982
576.86	1.983
577.05	1.956
577.25	1.933
577.44	1.963
577.64	1.965
577.83	1.925
578.03	1.930
578.22	1.912
578.42	1.906
578.61	1.887
578.81	1.906
579.00	1.913
579.20	1.909
579.40	1.895
579.59	1.878
579.79	1.884
579.98	1.879
580.18	1.886
580.37	1.898
580.57	1.935
580.76	2.031
580.96	2.002
581.15	2.024
581.35	2.051
581.54	2.034
581.74	2.011
581.93	2.048
582.13	2.072
582.32	2.019
582.52	1.989
582.71	1.976
582.91	1.908
583.10	1.910
583.30	1.887
583.49	1.884
583.69	1.939
583.88	1.964
584.08	1.935
584.27	1.971
584.47	2.014
584.66	2.023
584.86	1.995
585.05	2.015
585.25	2.062
585.44	2.055
585.64	2.036
585.83	1.997
586.03	2.021
586.22	2.013
586.42	1.957
586.61	2.008
586.81	2.068
587.00	2.072
587.20	2.026
587.39	2.039
587.59	2.085
587.78	2.096
587.98	2.093
588.17	2.091
588.37	2.139
588.56	2.170
588.76	2.055
588.95	2.036
589.15	2.134
589.34	2.199
589.54	2.134
589.73	2.139
589.92	2.199
590.12	2.169
590.31	2.107
590.51	2.239
590.70	2.274
590.90	2.273
591.09	2.202
591.29	2.125
591.48	2.115
591.68	2.136
591.87	2.096
592.06	2.084
592.26	2.164
592.45	2.159
592.65	2.016
592.84	2.018
593.04	2.076
593.23	2.131
593.43	2.095
593.62	2.103
593.81	2.141
594.01	2.141
594.20	2.109
594.40	2.089
594.59	2.133
594.79	2.155
594.98	2.122
595.17	2.088
595.37	2.104
595.56	2.113
595.76	2.086
595.95	2.090
596.14	2.139
596.34	2.142
596.53	2.086
596.73	2.101
596.92	2.103
597.12	2.148
597.31	2.140
597.50	2.104
597.70	2.165
597.89	2.135
598.09	2.071
598.28	2.102
598.47	2.177
598.67	2.166
598.86	2.103
599.06	2.191
599.25	2.205
599.44	2.179
599.64	2.143
599.83	2.116
600.03	2.222
600.22	2.234
600.41	2.261
600.61	2.187
600.80	2.258
601.00	2.268
601.19	2.152
601.38	2.108
601.58	2.154
601.77	2.180
601.96	2.215
602.16	2.183
602.35	2.553
602.55	2.366
602.74	2.366
602.93	2.393
603.13	2.618
603.32	2.618
603.51	2.593
603.71	2.794
603.90	2.804
604.09	2.841
604.29	2.593
604.48	2.293
604.68	2.351
604.87	2.315
605.06	2.222
605.26	2.142
605.45	2.155
605.64	2.143
605.84	2.052
606.03	2.061
606.22	2.043
606.42	2.037
606.61	1.983
606.80	1.986
607.00	2.044
607.19	2.051
607.38	2.045
607.58	2.101
607.77	2.160
607.96	2.178
608.16	2.155
608.35	2.304
608.54	2.476
608.74	2.682
608.93	-0.000
609.12	-0.000
609.32	-0.000
609.51	-0.000
609.70	-0.000
609.90	-0.000
610.09	-0.000
610.28	-0.000
610.48	-0.000
610.67	-0.000
610.86	-0.000
611.06	3.138
611.25	2.703
611.44	2.702
611.64	2.699
611.83	3.163
612.02	2.711
612.21	2.610
612.41	2.525
612.60	2.496
612.79	2.328
612.99	2.350
613.18	2.465
613.37	2.395
613.57	2.337
613.76	2.421
613.95	2.334
614.14	2.314
614.34	2.248
614.53	2.287
614.72	2.407
614.92	2.435
615.11	2.314
615.30	2.214
615.49	2.279
615.69	2.354
615.88	2.243
616.07	2.295
616.26	2.407
616.46	2.460
616.65	2.340
616.84	2.303
617.04	2.327
617.23	2.425
617.42	2.422
617.61	2.566
617.81	2.540
618.00	2.666
618.19	2.504
618.38	2.670
618.58	3.221
618.77	3.405
618.96	3.211
619.15	-0.000
619.35	-0.000
619.54	-0.000
619.73	4.616
619.92	-0.000
620.12	-0.000
620.31	-0.000
620.50	3.713
620.69	3.231
620.89	-0.000
621.08	-0.000
621.27	-0.000
621.46	3.936
621.66	-0.000
621.85	-0.000
622.04	-0.000
622.23	-0.000
622.43	-0.000
622.62	-0.000
622.81	-0.000
623.00	-0.000
623.19	-0.000
623.39	-0.000
623.58	-0.000
623.77	-0.000
623.96	-0.000
624.16	-0.000
624.35	3.465
624.54	-0.000
624.73	-0.000
624.92	-0.000
625.12	-0.000
625.31	-0.000
625.50	-0.000
625.69	-0.000
625.88	-0.000
626.08	-0.000
626.27	-0.000
626.46	-0.000
626.65	3.637
626.84	3.175
627.04	-0.000
627.23	-0.000
627.42	3.571
627.61	-0.000
627.80	-0.000
628.00	-0.000
628.19	-0.000
628.38	-0.000
628.57	-0.000
628.76	-0.000
628.96	-0.000
629.15	-0.000
629.34	-0.000
629.53	-0.000
629.72	-0.000
629.91	-0.000
630.11	-0.000
630.30	-0.000
630.49	-0.000
630.68	-0.000
630.87	-0.000
631.06	-0.000
631.26	-0.000
631.45	-0.000
631.64	-0.000
631.83	-0.000
632.02	-0.000
632.21	-0.000
632.41	-0.000
632.60	-0.000
632.79	-0.000
632.98	-0.000
633.17	-0.000
633.36	-0.000
633.55	-0.000
633.75	-0.000
633.94	-0.000
634.13	-0.000
634.32	-0.000
634.51	-0.000
634.70	-0.000
634.89	-0.000
635.09	-0.000
635.28	-0.000
635.47	-0.000
635.66	-0.000
635.85	-0.000
636.04	-0.000
636.23	-0.000
636.43	-0.000
636.62	-0.000
636.81	-0.000
637.00	-0.000
637.19	-0.000
637.38	-0.000
637.57	-0.000
637.76	-0.000
637.95	-0.000
638.15	-0.000
638.34	-0.000
638.53	-0.000
638.72	-0.000
638.91	-0.000
639.10	-0.000
639.29	-0.000
639.48	-0.000
639.67	-0.000
639.87	-0.000
640.06	-0.000
640.25	-0.000
640.44	-0.000
640.63	-0.000
640.82	-0.000
641.01	-0.000
641.20	-0.000
641.39	-0.000
641.58	-0.000
641.78	-0.000
641.97	-0.000
642.16	-0.000
642.35	-0.000
642.54	-0.000
642.73	-0.000
642.92	-0.000
643.11	-0.000
643.30	-0.000
643.49	-0.000
643.68	-0.000
643.87	-0.000
644.06	-0.000
644.25	-0.000
644.45	-0.000
644.64	-0.000
644.83	-0.000
645.02	-0.000
645.21	-0.000
645.40	-0.000
645.59	-0.000
645.78	-0.000
645.97	-0.000
646.16	-0.000
646.35	-0.000
646.54	-0.000
646.73	-0.000
646.92	-0.000
647.11	-0.000
647.30	-0.000
647.49	-0.000
647.68	-0.000
647.88	-0.000
648.07	-0.000
648.26	-0.000
648.45	-0.000
648.64	-0.000
648.83	-0.000
649.02	-0.000
649.21	-0.000
649.40	-0.000
649.59	-0.000
649.78	-0.000
649.97	-0.000
650.16	-0.000
650.35	-0.000
650.54	-0.000
650.73	-0.000
650.92	-0.000
651.11	-0.000
651.30	-0.000
651.49	-0.000
651.68	-0.000
651.87	-0.000
652.06	-0.000
652.25	-0.000
652.44	-0.000
652.63	-0.000
652.82	-0.000
653.01	-0.000
653.20	-0.000
653.39	2.739
653.58	2.560
653.77	2.561
653.96	2.406
654.15	2.195
654.34	2.185
654.53	2.171
654.72	2.109
654.91	1.971
655.10	1.942
655.29	1.939
655.48	1.920
655.67	1.865
655.86	1.844
656.05	1.837
656.24	1.839
656.43	1.788
656.62	1.801
656.81	1.845
657.00	1.846
657.19	1.844
657.38	1.865
657.57	1.888
657.76	1.950
657.95	1.945
658.14	2.033
658.33	2.134
658.51	2.321
658.70	2.278
658.89	2.202
659.08	2.448
659.27	2.799
659.46	2.624
659.65	3.264
659.84	-0.000
660.03	-0.000
660.22	-0.000
660.41	-0.000
660.60	-0.000
660.79	-0.000
660.98	-0.000
661.17	-0.000
661.36	-0.000
661.55	-0.000
661.74	-0.000
661.92	-0.000
662.11	-0.000
662.30	-0.000
662.49	-0.000
662.68	-0.000
662.87	-0.000
663.06	-0.000
663.25	-0.000
663.44	-0.000
663.63	-0.000
663.82	-0.000
664.01	2.712
664.20	2.615
664.38	2.832
664.57	2.917
664.76	2.894
664.95	3.138
665.14	-0.000
665.33	5.368
665.52	-0.000
665.71	-0.000
665.90	-0.000
666.09	-0.000
666.28	-0.000
666.46	-0.000
666.65	-0.000
666.84	-0.000
667.03	-0.000
667.22	-0.000
667.41	-0.000
667.60	-0.000
667.79	2.598
667.98	2.636
668.16	2.738
668.35	2.745
668.54	2.543
668.73	2.631
668.92	2.780
669.11	2.742
669.30	2.420
669.49	2.261
669.67	2.411
669.86	2.613
670.05	2.505
670.24	2.417
670.43	2.384
670.62	2.415
670.81	2.234
671.00	2.268
671.18	2.270
671.37	2.239
671.56	2.179
671.75	2.121
671.94	2.068
672.13	2.041
672.32	1.956
672.50	1.953
672.69	1.959
672.88	1.975
673.07	1.909
673.26	1.955
673.45	1.986
673.63	1.995
673.82	1.956
674.01	1.980
674.20	1.973
674.39	1.980
674.58	1.973
674.76	1.978
674.95	1.976
675.14	1.986
675.33	1.910
675.52	1.900
675.71	1.918
675.89	1.914
676.08	1.863
676.27	1.869
676.46	1.888
676.65	1.887
676.84	1.884
677.02	1.901
677.21	1.925
677.40	1.918
677.59	1.895
677.78	1.900
677.96	1.950
678.15	1.941
678.34	1.922
678.53	1.939
678.72	1.932
678.90	1.902
679.09	1.870
679.28	1.848
679.47	1.860
679.66	1.852
679.84	1.828
680.03	1.798
680.22	1.802
680.41	1.830
680.60	1.787
680.78	1.788
680.97	1.821
681.16	1.818
681.35	1.799
681.53	1.789
681.72	1.814
681.91	1.831
682.10	1.806
682.29	1.836
682.47	1.810
682.66	1.784
682.85	1.771
683.04	1.759
683.22	1.757
683.41	1.789
683.60	1.781
683.79	1.794
683.97	1.785
684.16	1.788
684.35	1.752
684.54	1.775
684.72	1.808
684.91	1.822
685.10	1.788
685.29	1.818
685.47	1.790
685.66	1.789
685.85	1.749
686.04	1.753
686.22	1.782
686.41	1.826
686.60	1.785
686.79	1.836
686.97	1.855
687.16	1.889
687.35	1.847
687.54	1.905
687.72	1.966
687.91	1.972
688.10	2.013
688.29	2.014
688.47	1.954
688.66	1.968
688.85	1.892
689.03	1.867
689.22	1.971
689.41	1.983
689.60	1.896
689.78	1.865
689.97	1.881
690.16	1.842
690.34	1.798
690.53	1.812
690.72	1.817
690.91	1.802
691.09	1.782
691.28	1.710
691.47	1.706
691.65	1.704
691.84	1.680
692.03	1.678
692.21	1.666
692.40	1.669
692.59	1.648
692.77	1.645
692.96	1.661
693.15	1.671
693.34	1.649
693.52	1.650
693.71	1.657
693.90	1.669
694.08	1.677
694.27	1.697
694.46	1.844
694.64	1.852
694.83	1.839
695.02	1.828
695.20	1.827
695.39	1.823
695.58	1.820
695.76	1.833
695.95	1.826
696.14	1.821
696.32	1.785
696.51	1.661
696.70	1.666
696.88	1.682
697.07	1.671
697.26	1.684
697.44	1.702
697.63	1.688
697.81	1.671
698.00	1.676
698.19	1.669
698.37	1.672
698.56	1.660
698.75	1.666
698.93	1.661
699.12	1.661
699.31	1.655
699.49	1.648
699.68	1.664
699.87	1.688
700.05	1.686
700.24	1.677
700.42	1.695
700.61	1.698
700.80	1.677
700.98	1.685
701.17	1.699
701.36	1.692
701.54	1.687
701.73	1.704
701.91	1.684
702.10	1.679
702.29	1.672
702.47	1.665
702.66	1.693
702.84	1.712
703.03	1.694
703.22	1.723
703.40	1.729
703.59	1.754
703.77	1.755
703.96	1.754
704.15	1.772
704.33	1.769
704.52	1.760
704.70	1.743
704.89	1.737
705.08	1.726
705.26	1.682
705.45	1.677
705.63	1.672
705.82	1.644
706.00	1.631
706.19	1.628
706.38	1.634
706.56	1.629
706.75	1.616
706.93	1.609
707.12	1.623
707.30	1.623
707.49	1.606
707.68	1.593
707.86	1.588
708.05	1.593
708.23	1.578
708.42	1.585
708.60	1.620
708.79	1.619
708.98	1.608
709.16	1.606
709.35	1.634
709.53	1.691
709.72	1.681
709.90	1.705
710.09	1.726
710.27	1.734
710.46	1.782
710.64	1.749
710.83	1.761
711.02	1.780
711.20	1.766
711.39	1.745
711.57	1.702
711.76	1.702
711.94	1.687
712.13	1.700
712.31	1.700
712.50	1.654
712.68	1.632
712.87	1.651
713.05	1.654
713.24	1.655
713.42	1.633
713.61	1.634
713.79	1.654
713.98	1.648
714.16	1.658
714.35	1.656
714.54	1.671
714.72	1.675
714.91	1.647
715.09	1.734
715.28	1.771
715.46	1.782
715.65	1.758
715.83	1.752
716.02	1.799
716.20	1.745
716.39	1.746
716.57	1.761
716.76	1.797
716.94	1.805
717.12	1.688
717.31	1.708
717.49	1.749
717.68	1.775
717.86	1.766
718.05	1.775
718.23	1.807
718.42	1.823
718.60	1.850
718.79	2.048
718.97	2.108
719.16	2.111
719.34	2.060
719.53	2.055
719.71	2.062
719.90	2.096
720.08	2.024
720.27	2.041
720.45	2.048
720.63	1.978
720.82	1.822
721.00	1.866
721.19	1.914
721.37	1.883
721.56	1.871
721.74	1.916
721.93	2.123
722.11	2.467
722.30	2.421
722.48	2.744
722.66	2.811
722.85	2.627
723.03	2.629
723.22	2.564
723.40	3.155
723.59	2.989
723.77	-0.000
723.95	2.536
724.14	2.496
724.32	2.512
724.51	2.467
724.69	2.644
724.88	2.613
725.06	2.430
725.24	2.427
725.43	2.425
725.61	2.773
725.80	2.275
725.98	2.251
726.16	2.117
726.35	2.353
726.53	2.269
726.72	2.186
726.90	3.102
727.09	3.402
727.27	-0.000
727.45	-0.000
727.64	-0.000
727.82	-0.000
728.01	-0.000
728.19	-0.000
728.37	-0.000
728.56	-0.000
728.74	-0.000
728.92	-0.000
729.11	-0.000
729.29	-0.000
729.48	-0.000
729.66	-0.000
729.84	-0.000
730.03	-0.000
730.21	-0.000
730.40	-0.000
730.58	-0.000
730.76	-0.000
730.95	-0.000
731.13	-0.000
731.31	-0.000
731.50	-0.000
731.68	-0.000
731.86	-0.000
732.05	-0.000
732.23	-0.000
732.42	-0.000
732.60	-0.000
732.78	-0.000
732.97	-0.000
733.15	-0.000
733.33	-0.000
733.52	-0.000
733.70	-0.000
733.88	-0.000
734.07	-0.000
734.25	-0.000
734.43	-0.000
734.62	-0.000
734.80	-0.000
734.98	-0.000
735.17	-0.000
735.35	-0.000
735.53	-0.000
735.72	-0.000
735.90	-0.000
736.08	-0.000
736.27	-0.000
736.45	-0.000
736.63	-0.000
736.82	-0.000
737.00	-0.000
737.18	-0.000
737.37	-0.000
737.55	-0.000
737.73	-0.000
737.92	-0.000
738.10	-0.000
738.28	-0.000
738.46	-0.000
738.65	-0.000
738.83	-0.000
739.01	-0.000
739.20	-0.000
739.38	-0.000
739.56	-0.000
739.75	-0.000
739.93	-0.000
740.11	-0.000
740.29	-0.000
740.48	-0.000
740.66	-0.000
740.84	-0.000
741.03	-0.000
741.21	-0.000
741.39	-0.000
741.57	-0.000
741.76	-0.000
741.94	-0.000
742.12	-0.000
742.31	-0.000
742.49	-0.000
742.67	-0.000
742.85	-0.000
743.04	-0.000
743.22	-0.000
743.40	-0.000
743.58	-0.000
743.77	-0.000
743.95	-0.000
744.13	-0.000
744.31	-0.000
744.50	-0.000
744.68	-0.000
744.86	-0.000
745.04	-0.000
745.23	-0.000
745.41	-0.000
745.59	-0.000
745.77	-0.000
745.96	-0.000
746.14	-0.000
746.32	-0.000
746.50	-0.000
746.69	-0.000
746.87	-0.000
747.05	-0.000
747.23	-0.000
747.42	-0.000
747.60	-0.000
747.78	-0.000
747.96	-0.000
748.14	-0.000
748.33	-0.000
748.51	-0.000
748.69	-0.000
748.87	-0.000
749.06	-0.000
749.24	-0.000
749.42	-0.000
749.60	-0.000
749.78	-0.000
749.97	-0.000
750.15	-0.000
750.33	-0.000
750.51	-0.000
750.69	-0.000
750.88	-0.000
751.06	-0.000
751.24	-0.000
751.42	-0.000
751.60	-0.000
751.79	-0.000
751.97	-0.000
752.15	-0.000
752.33	-0.000
752.51	-0.000
752.69	-0.000
752.88	-0.000
753.06	-0.000
753.24	-0.000
753.42	-0.000
753.60	-0.000
753.78	-0.000
753.97	-0.000
754.15	-0.000
754.33	-0.000
754.51	-0.000
754.69	-0.000
754.87	-0.000
755.06	-0.000
755.24	-0.000
755.42	-0.000
755.60	-0.000
755.78	-0.000
755.96	-0.000
756.15	-0.000
756.33	-0.000
756.51	-0.000
756.69	-0.000
756.87	-0.000
757.05	-0.000
757.23	-0.000
757.42	-0.000
757.60	-0.000
757.78	-0.000
757.96	-0.000
758.14	-0.000
758.32	-0.000
758.50	-0.000
758.69	-0.000
758.87	-0.000
759.05	-0.000
759.23	-0.000
759.41	-0.000
759.59	-0.000
759.77	-0.000
759.95	-0.000
760.13	-0.000
760.32	-0.000
760.50	-0.000
760.68	-0.000
760.86	-0.000
761.04	-0.000
761.22	-0.000
761.40	-0.000
761.58	-0.000
761.76	-0.000
761.95	-0.000
762.13	-0.000
762.31	-0.000
762.49	-0.000
762.67	-0.000
762.85	-0.000
763.03	-0.000
763.21	-0.000
763.39	-0.000
763.57	-0.000
763.75	-0.000
763.94	-0.000
764.12	-0.000
764.30	-0.000
764.48	-0.000
764.66	-0.000
764.84	-0.000
765.02	-0.000
765.20	-0.000
765.38	-0.000
765.56	-0.000
765.74	-0.000
765.92	-0.000
766.10	-0.000
766.28	-0.000
766.46	-0.000
766.65	-0.000
766.83	-0.000
767.01	-0.000
767.19	-0.000
767.37	-0.000
767.55	-0.000
767.73	-0.000
767.91	-0.000
768.09	-0.000
768.27	-0.000
768.45	-0.000
768.63	-0.000
768.81	-0.000
768.99	-0.000
769.17	-0.000
769.35	-0.000
769.53	-0.000
769.71	-0.000
769.89	-0.000
770.07	-0.000
770.25	-0.000
770.43	-0.000
770.61	-0.000
770.79	-0.000
770.97	-0.000
771.15	-0.000
771.33	-0.000
771.51	-0.000
771.69	-0.000
771.87	-0.000
772.05	-0.000
772.24	-0.000
772.42	-0.000
772.60	-0.000
772.78	-0.000
772.96	-0.000
773.14	-0.000
773.32	-0.000
773.49	-0.000
773.67	-0.000
773.85	-0.000
774.03	-0.000
774.21	-0.000
774.39	-0.000
774.57	-0.000
774.75	-0.000
774.93	-0.000
775.11	-0.000
775.29	-0.000
775.47	-0.000
775.65	-0.000
775.83	-0.000
776.01	-0.000
776.19	-0.000
776.37	-0.000
776.55	-0.000
776.73	-0.000
776.91	-0.000
777.09	-0.000
777.27	-0.000
777.45	-0.000
777.63	-0.000
777.81	-0.000
777.99	-0.000
778.17	-0.000
778.35	-0.000
778.53	-0.000
778.71	-0.000
778.89	-0.000
779.07	-0.000
779.24	-0.000
779.42	-0.000
779.60	-0.000
779.78	-0.000
779.96	-0.000
780.14	-0.000
780.32	-0.000
780.50	-0.000
780.68	-0.000
780.86	-0.000
781.04	-0.000
781.22	-0.000
781.40	-0.000
781.58	-0.000
781.75	-0.000
781.93	-0.000
782.11	-0.000
782.29	-0.000
782.47	-0.000
782.65	-0.000
782.83	-0.000
783.01	-0.000
783.19	-0.000
783.37	-0.000
783.55	-0.000
783.72	-0.000
783.90	-0.000
784.08	-0.000
784.26	-0.000
784.44	-0.000
784.62	-0.000
784.80	-0.000
784.98	-0.000
785.16	-0.000
785.33	-0.000
785.51	-0.000
785.69	-0.000
785.87	-0.000
786.05	-0.000
786.23	-0.000
786.41	-0.000
786.59	-0.000
786.77	-0.000
786.94	-0.000
787.12	-0.000
787.30	-0.000
787.48	-0.000
787.66	-0.000
787.84	-0.000
788.02	-0.000
788.19	-0.000
788.37	-0.000
788.55	-0.000
788.73	-0.000
788.91	-0.000
789.09	-0.000
789.27	-0.000
789.44	-0.000
789.62	-0.000
789.80	-0.000
789.98	-0.000
790.16	-0.000
790.34	-0.000
790.51	-0.000
790.69	-0.000
790.87	-0.000
791.05	-0.000
791.23	-0.000
791.41	-0.000
791.58	-0.000
791.76	-0.000
791.94	-0.000
792.12	-0.000
792.30	-0.000
792.48	-0.000
792.65	-0.000
792.83	-0.000
793.01	-0.000
793.19	-0.000
793.37	-0.000
793.54	-0.000
793.72	-0.000
793.90	-0.000
794.08	-0.000
794.26	-0.000
794.43	-0.000
794.61	-0.000
794.79	-0.000
794.97	-0.000
795.15	-0.000
795.32	-0.000
795.50	-0.000
795.68	-0.000
795.86	-0.000
796.04	-0.000
796.21	-0.000
796.39	-0.000
796.57	-0.000
796.75	-0.000
796.92	-0.000
797.10	-0.000
797.28	-0.000
797.46	-0.000
797.64	-0.000
797.81	-0.000
797.99	-0.000
798.17	-0.000
798.35	-0.000
798.52	-0.000
798.70	-0.000
798.88	-0.000
799.06	-0.000
799.23	-0.000
799.41	-0.000
799.59	-0.000
799.77	-0.000
799.94	-0.000
800.12	-0.000
800.30	-0.000
800.48	-0.000
800.65	-0.000
800.83	-0.000
801.01	-0.000
801.19	-0.000
801.36	-0.000
801.54	-0.000
801.72	-0.000
801.90	-0.000
802.07	-0.000
802.25	-0.000
802.43	-0.000
802.60	-0.000
802.78	-0.000
802.96	-0.000
803.14	-0.000
803.31	-0.000
803.49	-0.000
803.67	-0.000
803.84	-0.000
804.02	-0.000
804.20	-0.000
804.38	-0.000
804.55	-0.000
804.73	-0.000
804.91	-0.000
805.08	-0.000
805.26	-0.000
805.44	-0.000
805.61	-0.000
805.79	-0.000
805.97	-0.000
806.15	-0.000
806.32	-0.000
806.50	-0.000
806.68	-0.000
806.85	-0.000
807.03	-0.000
807.21	-0.000
807.38	-0.000
807.56	-0.000
807.74	-0.000
807.91	-0.000
808.09	-0.000
808.27	-0.000
808.44	-0.000
808.62	-0.000
808.80	-0.000
808.97	-0.000
809.15	-0.000
809.33	-0.000
809.50	-0.000
809.68	-0.000
809.86	-0.000
810.03	-0.000
810.21	-0.000
810.39	-0.000
810.56	-0.000
810.74	-0.000
810.91	-0.000
811.09	-0.000
811.27	-0.000
811.44	-0.000
811.62	-0.000
811.80	-0.000
811.97	-0.000
812.15	-0.000
812.33	-0.000
812.50	-0.000
812.68	-0.000
812.85	-0.000
813.03	-0.000
813.21	-0.000
813.38	-0.000
813.56	-0.000
813.74	-0.000
813.91	-0.000
814.09	-0.000
814.26	-0.000
814.44	-0.000
814.62	-0.000
814.79	-0.000
814.97	-0.000
815.14	-0.000
815.32	-0.000
815.50	-0.000
815.67	-0.000
815.85	-0.000
816.02	-0.000
816.20	-0.000
816.38	-0.000
816.55	-0.000
816.73	-0.000
816.90	-0.000
817.08	-0.000
817.26	-0.000
817.43	-0.000
817.61	-0.000
817.78	-0.000
817.96	-0.000
818.13	-0.000
818.31	-0.000
818.49	-0.000
818.66	-0.000
818.84	-0.000
819.01	-0.000
819.19	-0.000
819.36	-0.000
819.54	-0.000
819.71	-0.000
819.89	-0.000
820.07	-0.000
820.24	-0.000
820.42	-0.000
820.59	-0.000
820.77	-0.000
820.94	-0.000
821.12	-0.000
821.29	-0.000
821.47	-0.000
821.64	-0.000
821.82	-0.000
822.00	-0.000
822.17	-0.000
822.35	-0.000
822.52	-0.000
822.70	-0.000
822.87	-0.000
823.05	-0.000
823.22	-0.000
823.40	-0.000
823.57	-0.000
823.75	-0.000
823.92	-0.000
824.10	-0.000
824.27	-0.000
824.45	-0.000
824.62	-0.000
824.80	-0.000
824.97	-0.000
825.15	-0.000
825.32	-0.000
825.50	-0.000
825.67	-0.000
825.85	-0.000
826.02	-0.000
826.20	-0.000
826.37	-0.000
826.55	-0.000
826.72	-0.000
826.90	-0.000
827.07	-0.000
827.25	-0.000
827.42	-0.000
827.60	-0.000
827.77	-0.000
827.95	-0.000
828.12	-0.000
828.30	-0.000
828.47	-0.000
828.65	-0.000
828.82	-0.000
829.00	-0.000
829.17	-0.000
829.34	-0.000
829.52	-0.000
829.69	-0.000
829.87	-0.000
830.04	-0.000
830.22	-0.000
830.39	-0.000
830.57	-0.000
830.74	-0.000
830.92	-0.000
831.09	-0.000
831.26	-0.000
831.44	-0.000
831.61	-0.000
831.79	-0.000
831.96	-0.000
832.14	-0.000
832.31	-0.000
832.49	-0.000
832.66	-0.000
832.83	-0.000
833.01	-0.000
833.18	-0.000
833.36	-0.000
833.53	-0.000
833.70	-0.000
833.88	-0.000
834.05	-0.000
834.23	-0.000
834.40	-0.000
834.58	-0.000
834.75	-0.000
834.92	-0.000
835.10	-0.000
835.27	-0.000
835.45	-0.000
835.62	-0.000
835.79	-0.000
835.97	-0.000
836.14	-0.000
836.32	-0.000
836.49	-0.000
836.66	-0.000
836.84	-0.000
837.01	-0.000
837.18	-0.000
837.36	-0.000
837.53	-0.000
837.71	-0.000
837.88	-0.000
838.05	-0.000
838.23	-0.000
838.40	-0.000
838.58	-0.000
838.75	-0.000
838.92	-0.000
839.10	-0.000
839.27	-0.000
839.44	-0.000
839.62	-0.000
839.79	-0.000
839.96	-0.000
840.14	-0.000
840.31	-0.000
840.48	-0.000
840.66	-0.000
840.83	-0.000
841.01	-0.000
841.18	-0.000
841.35	-0.000
841.53	-0.000
841.70	-0.000
841.87	-0.000
842.05	-0.000
842.22	-0.000
842.39	-0.000
842.57	-0.000
842.74	-0.000
842.91	-0.000
843.09	-0.000
843.26	-0.000
843.43	-0.000
843.60	-0.000
843.78	-0.000
843.95	-0.000
844.12	-0.000
844.30	-0.000
844.47	-0.000
844.64	-0.000
844.82	-0.000
844.99	-0.000
845.16	-0.000
845.34	-0.000
845.51	-0.000
845.68	-0.000
845.85	-0.000
846.03	-0.000
846.20	-0.000
846.37	-0.000
846.55	-0.000
846.72	-0.000
846.89	-0.000
847.06	-0.000
847.24	-0.000
847.41	-0.000
847.58	-0.000
847.76	-0.000
847.93	-0.000
848.10	-0.000
848.27	-0.000
848.45	-0.000
848.62	-0.000
848.79	-0.000
848.97	-0.000
849.14	-0.000
849.31	-0.000
849.48	-0.000
849.66	-0.000
849.83	-0.000
850.00	-0.000
850.17	-0.000
850.35	-0.000
850.52	-0.000
850.69	-0.000
850.86	-0.000
851.04	-0.000
851.21	-0.000
851.38	-0.000
851.55	-0.000
851.72	-0.000
851.90	-0.000
852.07	-0.000
852.24	-0.000
852.41	-0.000
852.59	-0.000
852.76	-0.000
852.93	-0.000
853.10	-0.000
853.28	-0.000
853.45	-0.000
853.62	-0.000
853.79	-0.000
853.96	-0.000
854.14	-0.000
854.31	-0.000
854.48	-0.000
854.65	-0.000
854.82	-0.000
855.00	-0.000
855.17	-0.000
855.34	-0.000
855.51	-0.000
855.68	-0.000
855.86	-0.000
856.03	-0.000
856.20	-0.000
856.37	-0.000
856.54	-0.000
856.72	-0.000
856.89	-0.000
857.06	-0.000
857.23	-0.000
857.40	-0.000
857.57	-0.000
857.75	-0.000
857.92	-0.000
858.09	-0.000
858.26	-0.000
858.43	-0.000
858.60	-0.000
858.78	-0.000
858.95	-0.000
859.12	-0.000
859.29	-0.000
859.46	-0.000
859.63	-0.000
859.81	-0.000
859.98	-0.000
860.15	-0.000
860.32	-0.000
860.49	-0.000
860.66	-0.000
860.83	-0.000
861.01	-0.000
861.18	-0.000
861.35	-0.000
861.52	-0.000
861.69	-0.000
861.86	-0.000
862.03	-0.000
862.21	-0.000
862.38	-0.000
862.55	-0.000
862.72	-0.000
862.89	-0.000
863.06	-0.000
863.23	-0.000
863.40	-0.000
863.58	-0.000
863.75	-0.000
863.92	-0.000
864.09	-0.000
864.26	-0.000
864.43	-0.000
864.60	-0.000
864.77	-0.000
864.94	-0.000
865.11	-0.000
865.29	-0.000
865.46	-0.000
865.63	-0.000
865.80	-0.000
865.97	-0.000
866.14	-0.000
866.31	-0.000
866.48	-0.000
866.65	-0.000
866.82	-0.000
866.99	-0.000
867.16	-0.000
867.34	-0.000
867.51	-0.000
867.68	-0.000
867.85	-0.000
868.02	-0.000
868.19	-0.000
868.36	-0.000
868.53	-0.000
868.70	-0.000
868.87	-0.000
869.04	-0.000
869.21	-0.000
869.38	-0.000
869.55	-0.000
869.72	-0.000
869.89	-0.000
870.06	-0.000
870.24	-0.000
870.41	-0.000
870.58	-0.000
870.75	-0.000
870.92	-0.000
871.09	-0.000
871.26	-0.000
871.43	-0.000
871.60	-0.000
871.77	-0.000
871.94	-0.000
872.11	-0.000
872.28	-0.000
872.45	-0.000
872.62	-0.000
872.79	-0.000
872.96	-0.000
873.13	-0.000
873.30	-0.000
873.47	-0.000
873.64	-0.000
873.81	-0.000
873.98	-0.000
874.15	-0.000
874.32	-0.000
874.49	-0.000
874.66	-0.000
874.83	-0.000
875.00	-0.000
875.17	-0.000
875.34	-0.000
875.51	-0.000
875.68	-0.000
875.85	-0.000
876.02	-0.000
876.19	-0.000
876.36	-0.000
876.53	-0.000
876.70	-0.000
876.87	-0.000
877.04	-0.000
877.21	-0.000
877.38	-0.000
877.55	-0.000
877.72	-0.000
877.89	-0.000
878.06	-0.000
878.23	-0.000
878.39	-0.000
878.56	-0.000
878.73	-0.000
878.90	-0.000
879.07	-0.000
879.24	-0.000
879.41	-0.000
879.58	-0.000
879.75	-0.000
879.92	-0.000
880.09	-0.000
880.26	-0.000
880.43	-0.000
880.60	-0.000
880.77	-0.000
880.94	-0.000
881.11	-0.000
881.27	-0.000
881.44	-0.000
881.61	-0.000
881.78	-0.000
881.95	-0.000
882.12	-0.000
882.29	-0.000
882.46	-0.000
882.63	-0.000
882.80	-0.000
882.97	-0.000
883.14	-0.000
883.30	-0.000
883.47	-0.000
883.64	-0.000
883.81	-0.000
883.98	-0.000
884.15	-0.000
884.32	-0.000
884.49	-0.000
884.66	-0.000
884.82	-0.000
884.99	-0.000
885.16	-0.000
885.33	-0.000
885.50	-0.000
885.67	-0.000
885.84	-0.000
886.01	-0.000
886.17	-0.000
886.34	-0.000
886.51	-0.000
886.68	-0.000
886.85	-0.000
887.02	-0.000
887.19	-0.000
887.36	-0.000
887.52	-0.000
887.69	-0.000
887.86	-0.000
888.03	-0.000
888.20	-0.000
888.37	-0.000
888.54	-0.000
888.70	-0.000
888.87	-0.000
889.04	-0.000
889.21	-0.000
889.38	-0.000
889.55	-0.000
889.71	-0.000
889.88	-0.000
890.05	-0.000
890.22	-0.000
890.39	-0.000
>>>>>End Processed Spectral Data<<<<<
