SpectraSuite Data File
++++++++++++++++++++++++++++++++++++
Date: Fri Jun 19 16:52:41 CEST 2015
User: introlabs
Dark Spectrum Present: Yes
Reference Spectrum Present: Yes
Number of Sampled Component Spectra: 1
Spectrometers: USB4H08886
Integration Time (usec): 745692 (USB4H08886)
Spectra Averaged: 5 (USB4H08886)
Boxcar Smoothing: 5 (USB4H08886)
Correct for Electrical Dark: Yes (USB4H08886)
Strobe/Lamp Enabled: No (USB4H08886)
Correct for Detector Non-linearity: Yes (USB4H08886)
Correct for Stray Light: Yes (USB4H08886)
Number of Pixels in Processed Spectrum: 3648
>>>>>Begin Processed Spectral Data<<<<<
178.14	-0.000
178.36	-0.000
178.57	-0.000
178.79	-0.000
179.01	-0.000
179.22	-0.000
179.44	-0.000
179.65	-0.000
179.87	-0.000
180.08	-0.000
180.30	-0.000
180.52	-0.000
180.73	-0.000
180.95	-0.000
181.16	-0.000
181.38	-0.000
181.59	-0.000
181.81	-0.000
182.03	-0.000
182.24	-0.000
182.46	-0.000
182.67	-0.000
182.89	-0.000
183.10	-0.000
183.32	-0.000
183.54	-0.000
183.75	-0.000
183.97	-0.000
184.18	-0.000
184.40	-0.000
184.61	-0.000
184.83	-0.000
185.04	-0.000
185.26	-0.000
185.48	-0.000
185.69	-0.000
185.91	-0.000
186.12	-0.000
186.34	-0.000
186.55	-0.000
186.77	-0.000
186.98	-0.000
187.20	-0.000
187.42	-0.000
187.63	-0.000
187.85	-0.000
188.06	-0.000
188.28	-0.000
188.49	-0.000
188.71	-0.000
188.92	-0.000
189.14	-0.000
189.36	-0.000
189.57	-0.000
189.79	-0.000
190.00	-0.000
190.22	-0.000
190.43	-0.000
190.65	-0.000
190.86	-0.000
191.08	-0.000
191.29	-0.000
191.51	-0.000
191.72	-0.000
191.94	-0.000
192.16	-0.000
192.37	-0.000
192.59	-0.000
192.80	-0.000
193.02	-0.000
193.23	-0.000
193.45	-0.000
193.66	-0.000
193.88	-0.000
194.09	-0.000
194.31	-0.000
194.52	-0.000
194.74	-0.000
194.95	-0.000
195.17	-0.000
195.38	-0.000
195.60	-0.000
195.81	-0.000
196.03	-0.000
196.25	-0.000
196.46	-0.000
196.68	-0.000
196.89	-0.000
197.11	-0.000
197.32	-0.000
197.54	-0.000
197.75	-0.000
197.97	-0.000
198.18	-0.000
198.40	-0.000
198.61	-0.000
198.83	-0.000
199.04	-0.000
199.26	-0.000
199.47	-0.000
199.69	-0.000
199.90	-0.000
200.12	-0.000
200.33	-0.000
200.55	-0.000
200.76	-0.000
200.98	-0.000
201.19	-0.000
201.41	-0.000
201.62	-0.000
201.84	-0.000
202.05	-0.000
202.27	-0.000
202.48	-0.000
202.70	-0.000
202.91	-0.000
203.13	-0.000
203.34	-0.000
203.56	-0.000
203.77	-0.000
203.99	-0.000
204.20	-0.000
204.42	-0.000
204.63	-0.000
204.85	-0.000
205.06	-0.000
205.28	-0.000
205.49	-0.000
205.71	-0.000
205.92	-0.000
206.14	-0.000
206.35	-0.000
206.56	-0.000
206.78	-0.000
206.99	-0.000
207.21	-0.000
207.42	-0.000
207.64	-0.000
207.85	-0.000
208.07	-0.000
208.28	-0.000
208.50	-0.000
208.71	-0.000
208.93	-0.000
209.14	-0.000
209.36	-0.000
209.57	-0.000
209.79	-0.000
210.00	-0.000
210.22	-0.000
210.43	-0.000
210.64	-0.000
210.86	-0.000
211.07	-0.000
211.29	-0.000
211.50	-0.000
211.72	-0.000
211.93	-0.000
212.15	-0.000
212.36	-0.000
212.58	-0.000
212.79	-0.000
213.01	-0.000
213.22	-0.000
213.43	-0.000
213.65	-0.000
213.86	-0.000
214.08	-0.000
214.29	-0.000
214.51	-0.000
214.72	-0.000
214.94	-0.000
215.15	-0.000
215.36	-0.000
215.58	-0.000
215.79	-0.000
216.01	-0.000
216.22	-0.000
216.44	-0.000
216.65	-0.000
216.87	-0.000
217.08	-0.000
217.29	-0.000
217.51	-0.000
217.72	-0.000
217.94	-0.000
218.15	-0.000
218.37	-0.000
218.58	-0.000
218.80	-0.000
219.01	-0.000
219.22	-0.000
219.44	-0.000
219.65	-0.000
219.87	-0.000
220.08	-0.000
220.30	-0.000
220.51	-0.000
220.72	-0.000
220.94	-0.000
221.15	-0.000
221.37	-0.000
221.58	-0.000
221.79	-0.000
222.01	-0.000
222.22	-0.000
222.44	-0.000
222.65	-0.000
222.87	-0.000
223.08	-0.000
223.29	-0.000
223.51	-0.000
223.72	-0.000
223.94	-0.000
224.15	-0.000
224.36	-0.000
224.58	-0.000
224.79	-0.000
225.01	-0.000
225.22	-0.000
225.44	-0.000
225.65	-0.000
225.86	-0.000
226.08	-0.000
226.29	-0.000
226.51	-0.000
226.72	-0.000
226.93	-0.000
227.15	-0.000
227.36	-0.000
227.58	-0.000
227.79	-0.000
228.00	-0.000
228.22	-0.000
228.43	-0.000
228.65	-0.000
228.86	-0.000
229.07	-0.000
229.29	-0.000
229.50	-0.000
229.72	-0.000
229.93	-0.000
230.14	-0.000
230.36	-0.000
230.57	-0.000
230.78	-0.000
231.00	-0.000
231.21	-0.000
231.43	-0.000
231.64	-0.000
231.85	-0.000
232.07	-0.000
232.28	-0.000
232.50	-0.000
232.71	-0.000
232.92	-0.000
233.14	-0.000
233.35	-0.000
233.56	-0.000
233.78	-0.000
233.99	-0.000
234.21	-0.000
234.42	-0.000
234.63	-0.000
234.85	-0.000
235.06	-0.000
235.27	-0.000
235.49	-0.000
235.70	-0.000
235.91	-0.000
236.13	-0.000
236.34	-0.000
236.56	-0.000
236.77	-0.000
236.98	-0.000
237.20	-0.000
237.41	-0.000
237.62	-0.000
237.84	-0.000
238.05	-0.000
238.26	-0.000
238.48	-0.000
238.69	-0.000
238.91	-0.000
239.12	-0.000
239.33	-0.000
239.55	-0.000
239.76	-0.000
239.97	-0.000
240.19	-0.000
240.40	-0.000
240.61	-0.000
240.83	-0.000
241.04	-0.000
241.25	-0.000
241.47	-0.000
241.68	-0.000
241.89	-0.000
242.11	-0.000
242.32	-0.000
242.53	-0.000
242.75	-0.000
242.96	-0.000
243.17	-0.000
243.39	-0.000
243.60	-0.000
243.81	-0.000
244.03	-0.000
244.24	-0.000
244.45	-0.000
244.67	-0.000
244.88	-0.000
245.09	-0.000
245.31	-0.000
245.52	-0.000
245.73	-0.000
245.95	-0.000
246.16	-0.000
246.37	-0.000
246.59	-0.000
246.80	-0.000
247.01	-0.000
247.23	-0.000
247.44	-0.000
247.65	-0.000
247.87	-0.000
248.08	-0.000
248.29	-0.000
248.51	-0.000
248.72	-0.000
248.93	-0.000
249.15	-0.000
249.36	-0.000
249.57	-0.000
249.78	-0.000
250.00	-0.000
250.21	-0.000
250.42	-0.000
250.64	-0.000
250.85	-0.000
251.06	-0.000
251.28	-0.000
251.49	-0.000
251.70	-0.000
251.92	-0.000
252.13	-0.000
252.34	-0.000
252.55	-0.000
252.77	-0.000
252.98	-0.000
253.19	-0.000
253.41	-0.000
253.62	-0.000
253.83	-0.000
254.05	-0.000
254.26	-0.000
254.47	-0.000
254.68	-0.000
254.90	-0.000
255.11	-0.000
255.32	-0.000
255.54	-0.000
255.75	-0.000
255.96	-0.000
256.17	-0.000
256.39	-0.000
256.60	-0.000
256.81	-0.000
257.03	-0.000
257.24	-0.000
257.45	-0.000
257.66	-0.000
257.88	-0.000
258.09	-0.000
258.30	-0.000
258.51	-0.000
258.73	-0.000
258.94	-0.000
259.15	-0.000
259.37	-0.000
259.58	-0.000
259.79	-0.000
260.00	-0.000
260.22	-0.000
260.43	-0.000
260.64	-0.000
260.85	-0.000
261.07	-0.000
261.28	-0.000
261.49	-0.000
261.71	-0.000
261.92	-0.000
262.13	-0.000
262.34	-0.000
262.56	-0.000
262.77	-0.000
262.98	-0.000
263.19	-0.000
263.41	-0.000
263.62	-0.000
263.83	-0.000
264.04	-0.000
264.26	-0.000
264.47	-0.000
264.68	-0.000
264.89	-0.000
265.11	-0.000
265.32	-0.000
265.53	-0.000
265.74	-0.000
265.96	-0.000
266.17	-0.000
266.38	-0.000
266.59	-0.000
266.81	-0.000
267.02	-0.000
267.23	-0.000
267.44	-0.000
267.65	-0.000
267.87	-0.000
268.08	-0.000
268.29	-0.000
268.50	-0.000
268.72	-0.000
268.93	-0.000
269.14	-0.000
269.35	-0.000
269.57	-0.000
269.78	-0.000
269.99	-0.000
270.20	-0.000
270.41	-0.000
270.63	-0.000
270.84	-0.000
271.05	-0.000
271.26	-0.000
271.48	-0.000
271.69	-0.000
271.90	-0.000
272.11	-0.000
272.32	-0.000
272.54	-0.000
272.75	-0.000
272.96	-0.000
273.17	-0.000
273.39	-0.000
273.60	-0.000
273.81	-0.000
274.02	-0.000
274.23	-0.000
274.45	-0.000
274.66	-0.000
274.87	-0.000
275.08	-0.000
275.29	-0.000
275.51	-0.000
275.72	-0.000
275.93	-0.000
276.14	-0.000
276.35	-0.000
276.57	-0.000
276.78	-0.000
276.99	-0.000
277.20	-0.000
277.41	-0.000
277.63	-0.000
277.84	-0.000
278.05	-0.000
278.26	-0.000
278.47	-0.000
278.69	-0.000
278.90	-0.000
279.11	-0.000
279.32	-0.000
279.53	-0.000
279.74	-0.000
279.96	-0.000
280.17	-0.000
280.38	-0.000
280.59	-0.000
280.80	-0.000
281.02	-0.000
281.23	-0.000
281.44	-0.000
281.65	-0.000
281.86	-0.000
282.07	-0.000
282.29	-0.000
282.50	-0.000
282.71	-0.000
282.92	-0.000
283.13	-0.000
283.35	-0.000
283.56	-0.000
283.77	-0.000
283.98	-0.000
284.19	-0.000
284.40	-0.000
284.62	-0.000
284.83	-0.000
285.04	-0.000
285.25	-0.000
285.46	-0.000
285.67	-0.000
285.88	-0.000
286.10	-0.000
286.31	-0.000
286.52	-0.000
286.73	-0.000
286.94	-0.000
287.15	-0.000
287.37	-0.000
287.58	-0.000
287.79	-0.000
288.00	-0.000
288.21	-0.000
288.42	-0.000
288.63	-0.000
288.85	-0.000
289.06	-0.000
289.27	-0.000
289.48	-0.000
289.69	-0.000
289.90	-0.000
290.11	-0.000
290.33	-0.000
290.54	-0.000
290.75	-0.000
290.96	-0.000
291.17	-0.000
291.38	-0.000
291.59	-0.000
291.81	-0.000
292.02	-0.000
292.23	-0.000
292.44	-0.000
292.65	-0.000
292.86	-0.000
293.07	-0.000
293.28	-0.000
293.50	-0.000
293.71	-0.000
293.92	-0.000
294.13	-0.000
294.34	-0.000
294.55	-0.000
294.76	-0.000
294.97	-0.000
295.19	-0.000
295.40	-0.000
295.61	-0.000
295.82	-0.000
296.03	-0.000
296.24	-0.000
296.45	-0.000
296.66	-0.000
296.87	-0.000
297.09	-0.000
297.30	-0.000
297.51	-0.000
297.72	-0.000
297.93	-0.000
298.14	-0.000
298.35	-0.000
298.56	-0.000
298.77	-0.000
298.99	-0.000
299.20	-0.000
299.41	-0.000
299.62	-0.000
299.83	-0.000
300.04	-0.000
300.25	-0.000
300.46	-0.000
300.67	-0.000
300.88	-0.000
301.10	-0.000
301.31	-0.000
301.52	-0.000
301.73	-0.000
301.94	-0.000
302.15	-0.000
302.36	-0.000
302.57	-0.000
302.78	-0.000
302.99	-0.000
303.20	-0.000
303.41	-0.000
303.63	-0.000
303.84	-0.000
304.05	-0.000
304.26	-0.000
304.47	-0.000
304.68	-0.000
304.89	-0.000
305.10	-0.000
305.31	-0.000
305.52	-0.000
305.73	-0.000
305.94	-0.000
306.15	-0.000
306.37	-0.000
306.58	-0.000
306.79	-0.000
307.00	-0.000
307.21	-0.000
307.42	-0.000
307.63	-0.000
307.84	-0.000
308.05	-0.000
308.26	-0.000
308.47	-0.000
308.68	-0.000
308.89	-0.000
309.10	-0.000
309.31	-0.000
309.52	-0.000
309.73	-0.000
309.95	-0.000
310.16	-0.000
310.37	-0.000
310.58	-0.000
310.79	-0.000
311.00	-0.000
311.21	-0.000
311.42	-0.000
311.63	-0.000
311.84	-0.000
312.05	-0.000
312.26	-0.000
312.47	-0.000
312.68	-0.000
312.89	-0.000
313.10	-0.000
313.31	-0.000
313.52	-0.000
313.73	-0.000
313.94	-0.000
314.15	-0.000
314.36	-0.000
314.57	-0.000
314.78	-0.000
314.99	-0.000
315.21	-0.000
315.42	-0.000
315.63	-0.000
315.84	-0.000
316.05	-0.000
316.26	-0.000
316.47	-0.000
316.68	-0.000
316.89	-0.000
317.10	-0.000
317.31	-0.000
317.52	-0.000
317.73	-0.000
317.94	-0.000
318.15	-0.000
318.36	-0.000
318.57	-0.000
318.78	-0.000
318.99	-0.000
319.20	-0.000
319.41	-0.000
319.62	-0.000
319.83	-0.000
320.04	-0.000
320.25	-0.000
320.46	-0.000
320.67	-0.000
320.88	-0.000
321.09	-0.000
321.30	-0.000
321.51	-0.000
321.72	-0.000
321.93	-0.000
322.14	-0.000
322.35	-0.000
322.56	-0.000
322.77	-0.000
322.98	-0.000
323.19	-0.000
323.40	-0.000
323.61	-0.000
323.82	-0.000
324.03	-0.000
324.24	-0.000
324.45	-0.000
324.66	-0.000
324.87	-0.000
325.08	-0.000
325.29	-0.000
325.50	-0.000
325.71	-0.000
325.92	-0.000
326.13	-0.000
326.34	-0.000
326.55	-0.000
326.76	-0.000
326.97	-0.000
327.18	-0.000
327.39	-0.000
327.60	-0.000
327.80	-0.000
328.01	-0.000
328.22	-0.000
328.43	-0.000
328.64	-0.000
328.85	-0.000
329.06	-0.000
329.27	-0.000
329.48	-0.000
329.69	-0.000
329.90	-0.000
330.11	-0.000
330.32	-0.000
330.53	-0.000
330.74	-0.000
330.95	-0.000
331.16	-0.000
331.37	-0.000
331.58	-0.000
331.79	-0.000
332.00	-0.000
332.21	-0.000
332.42	-0.000
332.63	-0.000
332.83	-0.000
333.04	-0.000
333.25	-0.000
333.46	-0.000
333.67	-0.000
333.88	-0.000
334.09	-0.000
334.30	-0.000
334.51	-0.000
334.72	-0.000
334.93	-0.000
335.14	-0.000
335.35	-0.000
335.56	-0.000
335.77	-0.000
335.98	-0.000
336.18	-0.000
336.39	-0.000
336.60	-0.000
336.81	-0.000
337.02	-0.000
337.23	-0.000
337.44	-0.000
337.65	-0.000
337.86	-0.000
338.07	-0.000
338.28	-0.000
338.49	-0.000
338.70	-0.000
338.91	-0.000
339.11	-0.000
339.32	-0.000
339.53	-0.000
339.74	-0.000
339.95	-0.000
340.16	-0.000
340.37	-0.000
340.58	-0.000
340.79	-0.000
341.00	-0.000
341.21	-0.000
341.41	-0.000
341.62	-0.000
341.83	-0.000
342.04	-0.000
342.25	-0.000
342.46	-0.000
342.67	-0.000
342.88	-0.000
343.09	-0.000
343.30	-0.000
343.50	-0.000
343.71	-0.000
343.92	-0.000
344.13	-0.000
344.34	-0.000
344.55	-0.000
344.76	-0.000
344.97	-0.000
345.18	-0.000
345.38	-0.000
345.59	-0.000
345.80	-0.000
346.01	-0.000
346.22	-0.000
346.43	-0.000
346.64	-0.000
346.85	-0.000
347.06	-0.000
347.26	-0.000
347.47	-0.000
347.68	-0.000
347.89	-0.000
348.10	-0.000
348.31	-0.000
348.52	-0.000
348.73	-0.000
348.93	-0.000
349.14	-0.000
349.35	-0.000
349.56	-0.000
349.77	-0.000
349.98	-0.000
350.19	-0.000
350.39	-0.000
350.60	-0.000
350.81	-0.000
351.02	-0.000
351.23	-0.000
351.44	-0.000
351.65	-0.000
351.86	-0.000
352.06	-0.000
352.27	-0.000
352.48	-0.000
352.69	-0.000
352.90	-0.000
353.11	3.937
353.31	-0.000
353.52	-0.000
353.73	3.656
353.94	-0.000
354.15	-0.000
354.36	-0.000
354.57	3.365
354.77	-0.000
354.98	-0.000
355.19	-0.000
355.40	-0.000
355.61	-0.000
355.82	-0.000
356.02	-0.000
356.23	-0.000
356.44	-0.000
356.65	-0.000
356.86	-0.000
357.07	-0.000
357.27	-0.000
357.48	-0.000
357.69	-0.000
357.90	2.568
358.11	2.442
358.32	2.576
358.52	2.775
358.73	2.380
358.94	2.458
359.15	2.716
359.36	2.676
359.56	2.529
359.77	2.440
359.98	2.769
360.19	2.759
360.40	2.653
360.61	2.860
360.81	2.735
361.02	2.825
361.23	2.454
361.44	2.408
361.65	2.436
361.85	2.421
362.06	2.424
362.27	2.578
362.48	2.563
362.69	2.655
362.89	2.402
363.10	2.516
363.31	2.719
363.52	3.291
363.73	2.725
363.93	2.780
364.14	2.912
364.35	2.949
364.56	2.402
364.77	2.454
364.97	2.512
365.18	2.508
365.39	2.357
365.60	2.269
365.81	2.259
366.01	2.262
366.22	2.194
366.43	2.173
366.64	2.199
366.84	2.354
367.05	2.318
367.26	2.309
367.47	2.386
367.68	2.361
367.88	2.338
368.09	2.269
368.30	2.313
368.51	2.340
368.71	2.344
368.92	2.587
369.13	2.453
369.34	2.438
369.55	2.480
369.75	2.437
369.96	2.795
370.17	2.767
370.38	2.707
370.58	2.725
370.79	3.219
371.00	3.018
371.21	2.448
371.41	2.814
371.62	3.202
371.83	2.713
372.04	2.623
372.24	2.376
372.45	2.367
372.66	2.362
372.87	2.322
373.07	2.233
373.28	2.254
373.49	2.357
373.70	2.120
373.90	2.098
374.11	2.306
374.32	2.293
374.53	2.283
374.73	2.350
374.94	2.407
375.15	2.387
375.36	2.329
375.56	2.856
375.77	2.742
375.98	2.733
376.19	2.654
376.39	2.353
376.60	2.466
376.81	2.469
377.02	2.391
377.22	2.361
377.43	2.351
377.64	2.381
377.84	2.139
378.05	2.248
378.26	2.462
378.47	2.437
378.67	2.357
378.88	2.309
379.09	2.288
379.30	2.275
379.50	2.244
379.71	2.272
379.92	2.315
380.12	2.303
380.33	2.145
380.54	2.065
380.75	2.200
380.95	2.197
381.16	2.162
381.37	2.177
381.57	2.228
381.78	2.226
381.99	2.254
382.20	2.252
382.40	2.338
382.61	2.345
382.82	2.287
383.02	2.136
383.23	2.209
383.44	2.221
383.64	2.222
383.85	2.270
384.06	2.354
384.27	2.287
384.47	2.267
384.68	2.247
384.89	2.396
385.09	2.380
385.30	2.358
385.51	2.330
385.71	2.401
385.92	2.400
386.13	2.380
386.33	2.513
386.54	2.517
386.75	2.462
386.95	2.371
387.16	2.240
387.37	2.283
387.58	2.284
387.78	2.219
387.99	2.165
388.20	2.194
388.40	2.138
388.61	2.045
388.82	2.125
389.02	2.146
389.23	2.139
389.44	2.123
389.64	2.128
389.85	2.467
390.06	2.473
390.26	2.534
390.47	2.484
390.68	2.562
390.88	2.525
391.09	2.330
391.30	2.344
391.50	2.336
391.71	2.321
391.92	2.253
392.12	2.058
392.33	2.063
392.53	2.047
392.74	2.066
392.95	2.044
393.15	2.070
393.36	2.108
393.57	2.088
393.77	2.134
393.98	2.152
394.19	2.151
394.39	2.142
394.60	2.158
394.81	2.194
395.01	2.148
395.22	2.125
395.43	2.126
395.63	2.222
395.84	2.218
396.04	2.167
396.25	2.199
396.46	2.224
396.66	2.177
396.87	2.129
397.08	2.089
397.28	2.126
397.49	2.147
397.69	2.105
397.90	2.000
398.11	2.007
398.31	2.002
398.52	1.951
398.73	1.987
398.93	1.971
399.14	1.961
399.34	1.952
399.55	1.963
399.76	1.961
399.96	1.966
400.17	1.967
400.37	1.956
400.58	2.073
400.79	2.109
400.99	2.038
401.20	2.149
401.41	2.178
401.61	2.174
401.82	2.358
402.02	2.362
402.23	2.394
402.44	2.368
402.64	2.361
402.85	2.165
403.05	2.131
403.26	2.123
403.47	2.012
403.67	2.004
403.88	2.009
404.08	1.904
404.29	1.883
404.50	1.880
404.70	1.878
404.91	1.868
405.11	1.845
405.32	1.852
405.52	1.850
405.73	1.851
405.94	1.844
406.14	1.880
406.35	1.900
406.55	1.897
406.76	1.868
406.97	1.876
407.17	1.909
407.38	1.911
407.58	1.901
407.79	1.929
407.99	1.954
408.20	1.953
408.41	1.894
408.61	1.873
408.82	1.876
409.02	1.882
409.23	1.864
409.43	1.846
409.64	1.848
409.84	1.844
410.05	1.816
410.26	1.800
410.46	1.798
410.67	1.804
410.87	1.827
411.08	1.845
411.28	1.847
411.49	1.868
411.69	1.844
411.90	1.870
412.11	1.879
412.31	1.891
412.52	1.876
412.72	1.880
412.93	1.877
413.13	1.868
413.34	1.838
413.54	1.863
413.75	1.886
413.95	1.888
414.16	1.851
414.37	1.886
414.57	1.884
414.78	1.913
414.98	1.911
415.19	1.926
415.39	1.872
415.60	1.896
415.80	1.885
416.01	1.850
416.21	1.857
416.42	1.859
416.62	1.807
416.83	1.805
417.03	1.793
417.24	1.785
417.44	1.765
417.65	1.763
417.86	1.761
418.06	1.737
418.27	1.725
418.47	1.745
418.68	1.742
418.88	1.742
419.09	1.732
419.29	1.741
419.50	1.741
419.70	1.740
419.91	1.736
420.11	1.719
420.32	1.737
420.52	1.736
420.73	1.730
420.93	1.738
421.14	1.759
421.34	1.756
421.55	1.740
421.75	1.739
421.96	1.745
422.16	1.744
422.37	1.736
422.57	1.718
422.78	1.730
422.98	1.705
423.19	1.698
423.39	1.679
423.60	1.710
423.80	1.710
424.01	1.702
424.21	1.728
424.42	1.732
424.62	1.732
424.83	1.729
425.03	1.725
425.23	1.731
425.44	1.724
425.64	1.736
425.85	1.718
426.05	1.721
426.26	1.724
426.46	1.690
426.67	1.687
426.87	1.727
427.08	1.726
427.28	1.715
427.49	1.723
427.69	1.726
427.90	1.712
428.10	1.693
428.31	1.695
428.51	1.707
428.71	1.703
428.92	1.714
429.12	1.687
429.33	1.688
429.53	1.727
429.74	1.784
429.94	1.789
430.15	1.780
430.35	1.776
430.56	1.755
430.76	1.747
430.96	1.755
431.17	1.733
431.37	1.720
431.58	1.712
431.78	1.677
431.99	1.619
432.19	1.644
432.40	1.662
432.60	1.668
432.80	1.692
433.01	1.682
433.21	1.680
433.42	1.688
433.62	1.689
433.83	1.688
434.03	1.714
434.23	1.732
434.44	1.714
434.64	1.695
434.85	1.740
435.05	1.750
435.26	1.748
435.46	1.742
435.66	1.743
435.87	1.739
436.07	1.740
436.28	1.705
436.48	1.689
436.69	1.684
436.89	1.686
437.09	1.635
437.30	1.625
437.50	1.628
437.71	1.745
437.91	1.742
438.11	1.756
438.32	1.791
438.52	1.791
438.73	1.784
438.93	1.770
439.13	1.770
439.34	1.811
439.54	1.786
439.75	1.786
439.95	1.678
440.15	1.722
440.36	1.709
440.56	1.689
440.77	1.699
440.97	1.703
441.17	1.694
441.38	1.702
441.58	1.681
441.79	1.677
441.99	1.671
442.19	1.654
442.40	1.625
442.60	1.623
442.81	1.612
443.01	1.610
443.21	1.608
443.42	1.607
443.62	1.597
443.82	1.595
444.03	1.605
444.23	1.605
444.44	1.611
444.64	1.610
444.84	1.625
445.05	1.627
445.25	1.616
445.45	1.618
445.66	1.629
445.86	1.628
446.06	1.641
446.27	1.633
446.47	1.653
446.68	1.639
446.88	1.628
447.08	1.619
447.29	1.625
447.49	1.627
447.69	1.623
447.90	1.617
448.10	1.636
448.30	1.619
448.51	1.634
448.71	1.620
448.91	1.631
449.12	1.629
449.32	1.647
449.52	1.644
449.73	1.671
449.93	1.667
450.14	1.679
450.34	1.673
450.54	1.687
450.75	1.667
450.95	1.661
451.15	1.662
451.36	1.682
451.56	1.658
451.76	1.654
451.97	1.637
452.17	1.640
452.37	1.624
452.58	1.611
452.78	1.606
452.98	1.622
453.19	1.626
453.39	1.632
453.59	1.619
453.79	1.618
454.00	1.622
454.20	1.614
454.40	1.617
454.61	1.633
454.81	1.633
455.01	1.629
455.22	1.636
455.42	1.642
455.62	1.627
455.83	1.623
456.03	1.647
456.23	1.649
456.44	1.652
456.64	1.648
456.84	1.646
457.04	1.652
457.25	1.651
457.45	1.626
457.65	1.623
457.86	1.631
458.06	1.631
458.26	1.605
458.47	1.602
458.67	1.612
458.87	1.610
459.07	1.593
459.28	1.601
459.48	1.614
459.68	1.615
459.89	1.608
460.09	1.597
460.29	1.600
460.49	1.607
460.70	1.604
460.90	1.603
461.10	1.604
461.31	1.609
461.51	1.595
461.71	1.614
461.91	1.616
462.12	1.619
462.32	1.618
462.52	1.618
462.72	1.629
462.93	1.630
463.13	1.620
463.33	1.629
463.53	1.633
463.74	1.632
463.94	1.596
464.14	1.607
464.35	1.612
464.55	1.612
464.75	1.606
464.95	1.597
465.16	1.606
465.36	1.602
465.56	1.597
465.76	1.593
465.97	1.596
466.17	1.599
466.37	1.585
466.57	1.590
466.78	1.596
466.98	1.599
467.18	1.587
467.38	1.579
467.59	1.585
467.79	1.600
467.99	1.598
468.19	1.600
468.39	1.614
468.60	1.615
468.80	1.601
469.00	1.606
469.20	1.607
469.41	1.610
469.61	1.610
469.81	1.611
470.01	1.604
470.22	1.603
470.42	1.596
470.62	1.585
470.82	1.589
471.02	1.590
471.23	1.574
471.43	1.577
471.63	1.591
471.83	1.593
472.04	1.584
472.24	1.571
472.44	1.608
472.64	1.607
472.84	1.600
473.05	1.595
473.25	1.610
473.45	1.606
473.65	1.595
473.85	1.593
474.06	1.590
474.26	1.588
474.46	1.604
474.66	1.578
474.86	1.580
475.07	1.577
475.27	1.575
475.47	1.563
475.67	1.563
475.87	1.578
476.08	1.562
476.28	1.576
476.48	1.589
476.68	1.574
476.88	1.562
477.09	1.568
477.29	1.578
477.49	1.575
477.69	1.573
477.89	1.578
478.09	1.569
478.30	1.583
478.50	1.565
478.70	1.556
478.90	1.559
479.10	1.575
479.31	1.585
479.51	1.575
479.71	1.575
479.91	1.570
480.11	1.563
480.31	1.562
480.52	1.550
480.72	1.550
480.92	1.544
481.12	1.537
481.32	1.521
481.52	1.507
481.72	1.507
481.93	1.527
482.13	1.533
482.33	1.532
482.53	1.521
482.73	1.528
482.93	1.532
483.14	1.531
483.34	1.526
483.54	1.533
483.74	1.524
483.94	1.518
484.14	1.494
484.34	1.495
484.55	1.494
484.75	1.495
484.95	1.485
485.15	1.485
485.35	1.485
485.55	1.486
485.75	1.477
485.96	1.482
486.16	1.491
486.36	1.491
486.56	1.483
486.76	1.487
486.96	1.491
487.16	1.490
487.36	1.484
487.57	1.483
487.77	1.486
487.97	1.489
488.17	1.483
488.37	1.481
488.57	1.482
488.77	1.483
488.97	1.479
489.18	1.474
489.38	1.484
489.58	1.484
489.78	1.484
489.98	1.479
490.18	1.478
490.38	1.479
490.58	1.473
490.78	1.477
490.98	1.481
491.19	1.481
491.39	1.480
491.59	1.473
491.79	1.487
491.99	1.487
492.19	1.490
492.39	1.506
492.59	1.506
492.79	1.519
492.99	1.520
493.20	1.522
493.40	1.523
493.60	1.533
493.80	1.529
494.00	1.515
494.20	1.517
494.40	1.513
494.60	1.499
494.80	1.523
495.00	1.513
495.20	1.506
495.40	1.500
495.61	1.508
495.81	1.504
496.01	1.524
496.21	1.535
496.41	1.535
496.61	1.539
496.81	1.535
497.01	1.507
497.21	1.504
497.41	1.507
497.61	1.505
497.81	1.496
498.01	1.496
498.21	1.481
498.41	1.467
498.61	1.466
498.82	1.472
499.02	1.478
499.22	1.481
499.42	1.481
499.62	1.486
499.82	1.490
500.02	1.495
500.22	1.488
500.42	1.501
500.62	1.503
500.82	1.503
501.02	1.493
501.22	1.493
501.42	1.494
501.62	1.505
501.82	1.503
502.02	1.502
502.22	1.498
502.42	1.511
502.62	1.497
502.82	1.496
503.02	1.502
503.22	1.502
503.42	1.496
503.63	1.496
503.83	1.483
504.03	1.479
504.23	1.477
504.43	1.479
504.63	1.484
504.83	1.483
505.03	1.482
505.23	1.489
505.43	1.497
505.63	1.499
505.83	1.500
506.03	1.505
506.23	1.515
506.43	1.513
506.63	1.510
506.83	1.499
507.03	1.510
507.23	1.510
507.43	1.496
507.63	1.497
507.83	1.496
508.03	1.497
508.23	1.496
508.43	1.488
508.63	1.498
508.83	1.500
509.03	1.510
509.23	1.502
509.43	1.508
509.63	1.509
509.83	1.504
510.03	1.520
510.23	1.524
510.43	1.527
510.63	1.530
510.83	1.526
511.03	1.530
511.23	1.515
511.43	1.515
511.63	1.520
511.83	1.531
512.03	1.531
512.22	1.517
512.42	1.516
512.62	1.523
512.82	1.520
513.02	1.518
513.22	1.514
513.42	1.522
513.62	1.539
513.82	1.530
514.02	1.525
514.22	1.527
514.42	1.527
514.62	1.523
514.82	1.522
515.02	1.532
515.22	1.556
515.42	1.557
515.62	1.570
515.82	1.558
516.02	1.561
516.22	1.563
516.42	1.577
516.62	1.586
516.82	1.596
517.01	1.584
517.21	1.580
517.41	1.602
517.61	1.605
517.81	1.582
518.01	1.579
518.21	1.582
518.41	1.575
518.61	1.567
518.81	1.568
519.01	1.568
519.21	1.573
519.41	1.568
519.61	1.532
519.81	1.544
520.00	1.548
520.20	1.552
520.40	1.567
520.60	1.568
520.80	1.562
521.00	1.570
521.20	1.570
521.40	1.598
521.60	1.599
521.80	1.593
522.00	1.587
522.20	1.596
522.39	1.591
522.59	1.569
522.79	1.582
522.99	1.592
523.19	1.576
523.39	1.572
523.59	1.556
523.79	1.573
523.99	1.583
524.19	1.579
524.38	1.571
524.58	1.577
524.78	1.579
524.98	1.562
525.18	1.579
525.38	1.585
525.58	1.585
525.78	1.573
525.98	1.564
526.18	1.562
526.37	1.559
526.57	1.576
526.77	1.575
526.97	1.576
527.17	1.580
527.37	1.553
527.57	1.568
527.77	1.570
527.96	1.571
528.16	1.565
528.36	1.572
528.56	1.586
528.76	1.567
528.96	1.565
529.16	1.572
529.36	1.586
529.55	1.589
529.75	1.570
529.95	1.574
530.15	1.576
530.35	1.594
530.55	1.578
530.75	1.572
530.94	1.579
531.14	1.580
531.34	1.574
531.54	1.566
531.74	1.577
531.94	1.595
532.13	1.586
532.33	1.602
532.53	1.585
532.73	1.588
532.93	1.580
533.13	1.583
533.33	1.580
533.52	1.582
533.72	1.607
533.92	1.597
534.12	1.582
534.32	1.582
534.52	1.569
534.71	1.585
534.91	1.593
535.11	1.608
535.31	1.598
535.51	1.611
535.71	1.619
535.90	1.591
536.10	1.602
536.30	1.614
536.50	1.620
536.70	1.622
536.89	1.608
537.09	1.610
537.29	1.615
537.49	1.619
537.69	1.606
537.89	1.609
538.08	1.607
538.28	1.595
538.48	1.601
538.68	1.608
538.88	1.616
539.07	1.617
539.27	1.602
539.47	1.595
539.67	1.594
539.87	1.603
540.06	1.591
540.26	1.593
540.46	1.600
540.66	1.584
540.86	1.574
541.05	1.570
541.25	1.579
541.45	1.582
541.65	1.570
541.84	1.582
542.04	1.578
542.24	1.580
542.44	1.575
542.64	1.581
542.83	1.592
543.03	1.593
543.23	1.584
543.43	1.583
543.62	1.590
543.82	1.592
544.02	1.583
544.22	1.584
544.42	1.599
544.61	1.604
544.81	1.592
545.01	1.580
545.21	1.592
545.40	1.586
545.60	1.579
545.80	1.598
546.00	1.598
546.19	1.594
546.39	1.591
546.59	1.579
546.79	1.589
546.98	1.590
547.18	1.590
547.38	1.589
547.58	1.607
547.77	1.604
547.97	1.580
548.17	1.587
548.37	1.589
548.56	1.591
548.76	1.587
548.96	1.591
549.16	1.598
549.35	1.601
549.55	1.590
549.75	1.589
549.95	1.608
550.14	1.607
550.34	1.597
550.54	1.631
550.73	1.648
550.93	1.653
551.13	1.639
551.33	1.631
551.52	1.632
551.72	1.631
551.92	1.620
552.12	1.630
552.31	1.634
552.51	1.638
552.71	1.603
552.90	1.607
553.10	1.608
553.30	1.607
553.50	1.607
553.69	1.613
553.89	1.618
554.09	1.617
554.28	1.593
554.48	1.601
554.68	1.608
554.87	1.610
555.07	1.592
555.27	1.594
555.47	1.601
555.66	1.601
555.86	1.597
556.06	1.611
556.25	1.617
556.45	1.682
556.65	1.674
556.84	1.702
557.04	1.726
557.24	1.731
557.43	1.731
557.63	1.760
557.83	1.771
558.02	1.777
558.22	1.822
558.42	1.823
558.61	1.740
558.81	1.740
559.01	1.699
559.21	1.689
559.40	1.693
559.60	1.694
559.80	1.662
559.99	1.667
560.19	1.672
560.39	1.628
560.58	1.617
560.78	1.621
560.97	1.642
561.17	1.639
561.37	1.630
561.56	1.642
561.76	1.647
561.96	1.649
562.15	1.640
562.35	1.660
562.55	1.654
562.74	1.658
562.94	1.647
563.14	1.632
563.33	1.639
563.53	1.640
563.73	1.621
563.92	1.630
564.12	1.639
564.31	1.650
564.51	1.637
564.71	1.656
564.90	1.663
565.10	1.666
565.30	1.697
565.49	1.698
565.69	1.713
565.89	1.720
566.08	1.700
566.28	1.714
566.47	1.722
566.67	1.706
566.87	1.692
567.06	1.707
567.26	1.764
567.46	1.721
567.65	1.714
567.85	1.719
568.04	1.731
568.24	1.720
568.44	1.694
568.63	1.682
568.83	1.696
569.02	1.685
569.22	1.656
569.42	1.626
569.61	1.635
569.81	1.628
570.00	1.620
570.20	1.629
570.40	1.637
570.59	1.639
570.79	1.626
570.98	1.607
571.18	1.610
571.38	1.608
571.57	1.593
571.77	1.583
571.96	1.603
572.16	1.588
572.35	1.560
572.55	1.568
572.75	1.558
572.94	1.557
573.14	1.551
573.33	1.555
573.53	1.557
573.73	1.553
573.92	1.546
574.12	1.536
574.31	1.549
574.51	1.550
574.70	1.531
574.90	1.536
575.09	1.550
575.29	1.550
575.49	1.535
575.68	1.542
575.88	1.547
576.07	1.553
576.27	1.541
576.46	1.533
576.66	1.530
576.86	1.529
577.05	1.522
577.25	1.514
577.44	1.522
577.64	1.522
577.83	1.511
578.03	1.513
578.22	1.507
578.42	1.505
578.61	1.500
578.81	1.504
579.00	1.503
579.20	1.502
579.40	1.498
579.59	1.492
579.79	1.494
579.98	1.492
580.18	1.497
580.37	1.501
580.57	1.513
580.76	1.544
580.96	1.536
581.15	1.543
581.35	1.548
581.54	1.544
581.74	1.540
581.93	1.550
582.13	1.554
582.32	1.536
582.52	1.527
582.71	1.521
582.91	1.496
583.10	1.496
583.30	1.490
583.49	1.488
583.69	1.507
583.88	1.516
584.08	1.508
584.27	1.522
584.47	1.536
584.66	1.540
584.86	1.536
585.05	1.541
585.25	1.553
585.44	1.551
585.64	1.550
585.83	1.534
586.03	1.539
586.22	1.537
586.42	1.520
586.61	1.536
586.81	1.551
587.00	1.551
587.20	1.541
587.39	1.545
587.59	1.555
587.78	1.557
587.98	1.559
588.17	1.559
588.37	1.569
588.56	1.576
588.76	1.544
588.95	1.540
589.15	1.567
589.34	1.584
589.54	1.574
589.73	1.578
589.92	1.591
590.12	1.588
590.31	1.574
590.51	1.609
590.70	1.618
590.90	1.626
591.09	1.615
591.29	1.593
591.48	1.586
591.68	1.593
591.87	1.584
592.06	1.585
592.26	1.605
592.45	1.602
592.65	1.562
592.84	1.560
593.04	1.575
593.23	1.589
593.43	1.583
593.62	1.585
593.81	1.589
594.01	1.589
594.20	1.580
594.40	1.572
594.59	1.584
594.79	1.590
594.98	1.585
595.17	1.574
595.37	1.577
595.56	1.582
595.76	1.581
595.95	1.584
596.14	1.597
596.34	1.599
596.53	1.587
596.73	1.590
596.92	1.589
597.12	1.603
597.31	1.609
597.50	1.600
597.70	1.612
597.89	1.603
598.09	1.587
598.28	1.594
598.47	1.614
598.67	1.608
598.86	1.593
599.06	1.613
599.25	1.609
599.44	1.598
599.64	1.587
599.83	1.579
600.03	1.604
600.22	1.606
600.41	1.613
600.61	1.595
600.80	1.610
601.00	1.610
601.19	1.587
601.38	1.579
601.58	1.588
601.77	1.599
601.96	1.610
602.16	1.603
602.35	1.664
602.55	1.639
602.74	1.642
602.93	1.652
603.13	1.683
603.32	1.690
603.51	1.689
603.71	1.714
603.90	1.717
604.09	1.722
604.29	1.700
604.48	1.653
604.68	1.663
604.87	1.657
605.06	1.635
605.26	1.613
605.45	1.615
605.64	1.613
605.84	1.587
606.03	1.587
606.22	1.579
606.42	1.578
606.61	1.563
606.80	1.564
607.00	1.580
607.19	1.582
607.38	1.584
607.58	1.597
607.77	1.608
607.96	1.608
608.16	1.606
608.35	1.643
608.54	1.670
608.74	1.694
608.93	1.750
609.12	1.768
609.32	1.793
609.51	1.811
609.70	1.787
609.90	1.804
610.09	1.845
610.28	1.888
610.48	1.806
610.67	1.809
610.86	1.808
611.06	1.738
611.25	1.717
611.44	1.718
611.64	1.717
611.83	1.751
612.02	1.729
612.21	1.719
612.41	1.706
612.60	1.707
612.79	1.675
612.99	1.678
613.18	1.700
613.37	1.684
613.57	1.672
613.76	1.685
613.95	1.663
614.14	1.659
614.34	1.642
614.53	1.648
614.72	1.666
614.92	1.675
615.11	1.658
615.30	1.632
615.49	1.648
615.69	1.667
615.88	1.647
616.07	1.656
616.26	1.676
616.46	1.686
616.65	1.673
616.84	1.666
617.04	1.670
617.23	1.690
617.42	1.694
617.61	1.707
617.81	1.698
618.00	1.713
618.19	1.702
618.38	1.729
618.58	1.758
618.77	1.762
618.96	1.759
619.15	1.782
619.35	1.803
619.54	1.809
619.73	1.778
619.92	1.799
620.12	1.830
620.31	1.836
620.50	1.781
620.69	1.779
620.89	1.804
621.08	1.810
621.27	1.805
621.46	1.789
621.66	1.825
621.85	1.830
622.04	1.804
622.23	1.828
622.43	1.835
622.62	1.839
622.81	1.837
623.00	1.832
623.19	1.857
623.39	1.844
623.58	1.819
623.77	1.809
623.96	1.833
624.16	1.842
624.35	1.792
624.54	1.820
624.73	1.852
624.92	1.833
625.12	1.814
625.31	1.820
625.50	1.847
625.69	1.851
625.88	1.831
626.08	1.825
626.27	1.823
626.46	1.823
626.65	1.789
626.84	1.782
627.04	1.821
627.23	1.824
627.42	1.788
627.61	1.809
627.80	1.825
628.00	1.825
628.19	1.810
628.38	1.838
628.57	1.854
628.76	1.862
628.96	1.845
629.15	1.853
629.34	1.881
629.53	1.888
629.72	1.837
629.91	1.857
630.11	1.900
630.30	1.899
630.49	1.950
630.68	1.961
630.87	1.995
631.06	2.014
631.26	1.955
631.45	1.974
631.64	2.086
631.83	2.102
632.02	2.065
632.21	2.022
632.41	2.135
632.60	2.013
632.79	1.985
632.98	1.994
633.17	2.006
633.36	2.031
633.55	1.984
633.75	1.936
633.94	1.941
634.13	1.945
634.32	1.933
634.51	1.874
634.70	1.898
634.89	1.906
635.09	1.875
635.28	1.876
635.47	1.876
635.66	1.916
635.85	1.893
636.04	1.932
636.23	2.001
636.43	2.020
636.62	2.025
636.81	2.006
637.00	2.018
637.19	2.066
637.38	2.045
637.57	2.060
637.76	2.079
637.95	2.070
638.15	2.012
638.34	1.962
638.53	2.000
638.72	2.012
638.91	1.996
639.10	1.980
639.29	1.969
639.48	1.965
639.67	1.966
639.87	1.956
640.06	2.049
640.25	2.051
640.44	2.056
640.63	2.070
640.82	2.098
641.01	2.113
641.20	2.123
641.39	2.196
641.58	2.255
641.78	2.224
641.97	2.157
642.16	2.721
642.35	2.674
642.54	2.596
642.73	2.395
642.92	2.355
643.11	2.481
643.30	2.496
643.49	2.295
643.68	2.350
643.87	2.365
644.06	2.367
644.25	1.937
644.45	2.005
644.64	2.031
644.83	2.037
645.02	2.017
645.21	1.991
645.40	1.987
645.59	2.004
645.78	1.936
645.97	1.981
646.16	1.977
646.35	1.968
646.54	1.935
646.73	1.953
646.92	1.985
647.11	1.975
647.30	1.941
647.49	1.974
647.68	1.959
647.88	1.959
648.07	1.892
648.26	1.952
648.45	1.951
648.64	1.924
648.83	1.904
649.02	1.933
649.21	2.103
649.40	2.088
649.59	2.017
649.78	2.052
649.97	2.465
650.16	2.434
650.35	2.232
650.54	2.416
650.73	2.939
650.92	2.676
651.11	2.376
651.30	2.305
651.49	2.472
651.68	2.534
651.87	2.422
652.06	2.083
652.25	2.115
652.44	2.130
652.63	2.022
652.82	2.008
653.01	1.985
653.20	1.961
653.39	1.825
653.58	1.798
653.77	1.792
653.96	1.753
654.15	1.698
654.34	1.692
654.53	1.676
654.72	1.648
654.91	1.594
655.10	1.579
655.29	1.571
655.48	1.561
655.67	1.538
655.86	1.527
656.05	1.522
656.24	1.524
656.43	1.502
656.62	1.506
656.81	1.521
657.00	1.516
657.19	1.512
657.38	1.517
657.57	1.524
657.76	1.545
657.95	1.542
658.14	1.571
658.33	1.597
658.51	1.640
658.70	1.635
658.89	1.626
659.08	1.680
659.27	1.731
659.46	1.724
659.65	1.766
659.84	1.783
660.03	1.814
660.22	1.814
660.41	1.854
660.60	1.839
660.79	1.864
660.98	1.952
661.17	1.916
661.36	1.897
661.55	1.920
661.74	1.889
661.92	1.922
662.11	1.939
662.30	1.916
662.49	1.847
662.68	1.834
662.87	1.849
663.06	1.780
663.25	1.808
663.44	1.806
663.63	1.811
663.82	1.807
664.01	1.757
664.20	1.744
664.38	1.759
664.57	1.758
664.76	1.770
664.95	1.788
665.14	1.833
665.33	1.790
665.52	1.916
665.71	2.006
665.90	2.021
666.09	2.072
666.28	2.057
666.46	2.002
666.65	2.004
666.84	1.989
667.03	1.929
667.22	1.925
667.41	1.975
667.60	1.825
667.79	1.742
667.98	1.754
668.16	1.755
668.35	1.753
668.54	1.746
668.73	1.761
668.92	1.768
669.11	1.758
669.30	1.714
669.49	1.684
669.67	1.705
669.86	1.735
670.05	1.714
670.24	1.703
670.43	1.697
670.62	1.692
670.81	1.658
671.00	1.663
671.18	1.655
671.37	1.647
671.56	1.632
671.75	1.621
671.94	1.599
672.13	1.590
672.32	1.563
672.50	1.562
672.69	1.562
672.88	1.568
673.07	1.546
673.26	1.564
673.45	1.572
673.63	1.577
673.82	1.561
674.01	1.570
674.20	1.567
674.39	1.562
674.58	1.560
674.76	1.566
674.95	1.566
675.14	1.567
675.33	1.544
675.52	1.541
675.71	1.541
675.89	1.541
676.08	1.522
676.27	1.525
676.46	1.535
676.65	1.535
676.84	1.533
677.02	1.537
677.21	1.547
677.40	1.544
677.59	1.536
677.78	1.536
677.96	1.551
678.15	1.550
678.34	1.545
678.53	1.551
678.72	1.548
678.90	1.536
679.09	1.526
679.28	1.514
679.47	1.516
679.66	1.514
679.84	1.508
680.03	1.497
680.22	1.496
680.41	1.509
680.60	1.487
680.78	1.485
680.97	1.499
681.16	1.496
681.35	1.490
681.53	1.486
681.72	1.493
681.91	1.502
682.10	1.493
682.29	1.504
682.47	1.492
682.66	1.479
682.85	1.475
683.04	1.468
683.22	1.469
683.41	1.481
683.60	1.480
683.79	1.487
683.97	1.480
684.16	1.480
684.35	1.464
684.54	1.472
684.72	1.487
684.91	1.496
685.10	1.483
685.29	1.493
685.47	1.480
685.66	1.478
685.85	1.462
686.04	1.462
686.22	1.473
686.41	1.494
686.60	1.480
686.79	1.505
686.97	1.507
687.16	1.520
687.35	1.505
687.54	1.529
687.72	1.548
687.91	1.548
688.10	1.566
688.29	1.564
688.47	1.540
688.66	1.541
688.85	1.512
689.03	1.501
689.22	1.539
689.41	1.547
689.60	1.522
689.78	1.510
689.97	1.515
690.16	1.502
690.34	1.487
690.53	1.495
690.72	1.497
690.91	1.493
691.09	1.486
691.28	1.449
691.47	1.441
691.65	1.439
691.84	1.428
692.03	1.426
692.21	1.415
692.40	1.417
692.59	1.405
692.77	1.405
692.96	1.410
693.15	1.415
693.34	1.404
693.52	1.404
693.71	1.405
693.90	1.412
694.08	1.419
694.27	1.427
694.46	1.490
694.64	1.493
694.83	1.488
695.02	1.485
695.20	1.483
695.39	1.485
695.58	1.489
695.76	1.492
695.95	1.485
696.14	1.479
696.32	1.467
696.51	1.407
696.70	1.407
696.88	1.418
697.07	1.412
697.26	1.417
697.44	1.420
697.63	1.415
697.81	1.409
698.00	1.412
698.19	1.408
698.37	1.409
698.56	1.406
698.75	1.410
698.93	1.402
699.12	1.403
699.31	1.401
699.49	1.399
699.68	1.402
699.87	1.417
700.05	1.417
700.24	1.414
700.42	1.420
700.61	1.421
700.80	1.411
700.98	1.420
701.17	1.423
701.36	1.421
701.54	1.421
701.73	1.428
701.91	1.415
702.10	1.414
702.29	1.413
702.47	1.411
702.66	1.422
702.84	1.432
703.03	1.419
703.22	1.431
703.40	1.429
703.59	1.442
703.77	1.444
703.96	1.445
704.15	1.448
704.33	1.445
704.52	1.442
704.70	1.436
704.89	1.432
705.08	1.431
705.26	1.413
705.45	1.411
705.63	1.406
705.82	1.393
706.00	1.386
706.19	1.388
706.38	1.390
706.56	1.388
706.75	1.380
706.93	1.376
707.12	1.381
707.30	1.382
707.49	1.375
707.68	1.366
707.86	1.363
708.05	1.363
708.23	1.353
708.42	1.354
708.60	1.373
708.79	1.372
708.98	1.367
709.16	1.365
709.35	1.376
709.53	1.402
709.72	1.399
709.90	1.406
710.09	1.415
710.27	1.423
710.46	1.448
710.64	1.433
710.83	1.440
711.02	1.450
711.20	1.444
711.39	1.434
711.57	1.412
711.76	1.413
711.94	1.408
712.13	1.416
712.31	1.415
712.50	1.389
712.68	1.381
712.87	1.387
713.05	1.386
713.24	1.387
713.42	1.384
713.61	1.387
713.79	1.398
713.98	1.396
714.16	1.402
714.35	1.397
714.54	1.403
714.72	1.404
714.91	1.393
715.09	1.436
715.28	1.450
715.46	1.456
715.65	1.447
715.83	1.443
716.02	1.460
716.20	1.436
716.39	1.439
716.57	1.443
716.76	1.453
716.94	1.460
717.12	1.409
717.31	1.420
717.49	1.431
717.68	1.441
717.86	1.437
718.05	1.443
718.23	1.458
718.42	1.468
718.60	1.478
718.79	1.546
718.97	1.558
719.16	1.557
719.34	1.547
719.53	1.545
719.71	1.543
719.90	1.549
720.08	1.528
720.27	1.525
720.45	1.519
720.63	1.503
720.82	1.451
721.00	1.461
721.19	1.478
721.37	1.469
721.56	1.468
721.74	1.481
721.93	1.546
722.11	1.595
722.30	1.598
722.48	1.641
722.66	1.642
722.85	1.630
723.03	1.641
723.22	1.637
723.40	1.657
723.59	1.656
723.77	1.702
723.95	1.621
724.14	1.636
724.32	1.651
724.51	1.636
724.69	1.651
724.88	1.642
725.06	1.628
725.24	1.630
725.43	1.649
725.61	1.677
725.80	1.614
725.98	1.624
726.16	1.586
726.35	1.623
726.53	1.613
726.72	1.608
726.90	1.717
727.09	1.718
727.27	1.778
727.45	1.742
727.64	1.827
727.82	1.929
728.01	1.938
728.19	1.913
728.37	2.019
728.56	2.081
728.74	2.278
728.92	1.979
729.11	2.029
729.29	1.968
729.48	2.001
729.66	1.864
729.84	1.852
730.03	1.901
730.21	1.927
730.40	1.770
730.58	1.763
730.76	1.725
730.95	1.740
731.13	1.722
731.31	1.882
731.50	1.951
731.68	1.980
731.86	1.921
732.05	2.207
732.23	2.232
732.42	2.408
732.60	2.577
732.78	3.127
732.97	-0.000
733.15	-0.000
733.33	-0.000
733.52	-0.000
733.70	-0.000
733.88	-0.000
734.07	-0.000
734.25	-0.000
734.43	-0.000
734.62	-0.000
734.80	-0.000
734.98	-0.000
735.17	-0.000
735.35	-0.000
735.53	-0.000
735.72	-0.000
735.90	-0.000
736.08	-0.000
736.27	-0.000
736.45	-0.000
736.63	-0.000
736.82	-0.000
737.00	-0.000
737.18	-0.000
737.37	-0.000
737.55	-0.000
737.73	-0.000
737.92	-0.000
738.10	-0.000
738.28	-0.000
738.46	-0.000
738.65	-0.000
738.83	-0.000
739.01	-0.000
739.20	-0.000
739.38	-0.000
739.56	-0.000
739.75	-0.000
739.93	-0.000
740.11	-0.000
740.29	-0.000
740.48	-0.000
740.66	-0.000
740.84	-0.000
741.03	-0.000
741.21	-0.000
741.39	-0.000
741.57	-0.000
741.76	-0.000
741.94	-0.000
742.12	-0.000
742.31	-0.000
742.49	-0.000
742.67	-0.000
742.85	-0.000
743.04	-0.000
743.22	-0.000
743.40	-0.000
743.58	-0.000
743.77	-0.000
743.95	-0.000
744.13	-0.000
744.31	-0.000
744.50	-0.000
744.68	-0.000
744.86	-0.000
745.04	-0.000
745.23	-0.000
745.41	-0.000
745.59	-0.000
745.77	-0.000
745.96	-0.000
746.14	-0.000
746.32	-0.000
746.50	-0.000
746.69	-0.000
746.87	-0.000
747.05	-0.000
747.23	-0.000
747.42	-0.000
747.60	-0.000
747.78	-0.000
747.96	-0.000
748.14	-0.000
748.33	-0.000
748.51	-0.000
748.69	-0.000
748.87	-0.000
749.06	-0.000
749.24	-0.000
749.42	-0.000
749.60	-0.000
749.78	-0.000
749.97	-0.000
750.15	-0.000
750.33	-0.000
750.51	-0.000
750.69	-0.000
750.88	-0.000
751.06	-0.000
751.24	-0.000
751.42	-0.000
751.60	-0.000
751.79	-0.000
751.97	-0.000
752.15	-0.000
752.33	-0.000
752.51	-0.000
752.69	-0.000
752.88	-0.000
753.06	-0.000
753.24	-0.000
753.42	-0.000
753.60	-0.000
753.78	-0.000
753.97	-0.000
754.15	-0.000
754.33	-0.000
754.51	-0.000
754.69	-0.000
754.87	-0.000
755.06	-0.000
755.24	-0.000
755.42	-0.000
755.60	-0.000
755.78	-0.000
755.96	-0.000
756.15	-0.000
756.33	-0.000
756.51	-0.000
756.69	-0.000
756.87	-0.000
757.05	-0.000
757.23	-0.000
757.42	-0.000
757.60	-0.000
757.78	-0.000
757.96	-0.000
758.14	-0.000
758.32	-0.000
758.50	-0.000
758.69	-0.000
758.87	-0.000
759.05	-0.000
759.23	-0.000
759.41	-0.000
759.59	-0.000
759.77	-0.000
759.95	-0.000
760.13	-0.000
760.32	-0.000
760.50	-0.000
760.68	-0.000
760.86	-0.000
761.04	-0.000
761.22	-0.000
761.40	-0.000
761.58	-0.000
761.76	-0.000
761.95	-0.000
762.13	-0.000
762.31	-0.000
762.49	-0.000
762.67	-0.000
762.85	-0.000
763.03	-0.000
763.21	-0.000
763.39	-0.000
763.57	-0.000
763.75	-0.000
763.94	-0.000
764.12	-0.000
764.30	-0.000
764.48	-0.000
764.66	-0.000
764.84	-0.000
765.02	-0.000
765.20	-0.000
765.38	-0.000
765.56	-0.000
765.74	-0.000
765.92	-0.000
766.10	-0.000
766.28	-0.000
766.46	-0.000
766.65	-0.000
766.83	-0.000
767.01	-0.000
767.19	-0.000
767.37	-0.000
767.55	-0.000
767.73	-0.000
767.91	-0.000
768.09	-0.000
768.27	-0.000
768.45	-0.000
768.63	-0.000
768.81	-0.000
768.99	-0.000
769.17	-0.000
769.35	-0.000
769.53	-0.000
769.71	-0.000
769.89	-0.000
770.07	-0.000
770.25	-0.000
770.43	-0.000
770.61	-0.000
770.79	-0.000
770.97	-0.000
771.15	-0.000
771.33	-0.000
771.51	-0.000
771.69	-0.000
771.87	-0.000
772.05	-0.000
772.24	-0.000
772.42	-0.000
772.60	-0.000
772.78	-0.000
772.96	-0.000
773.14	-0.000
773.32	-0.000
773.49	-0.000
773.67	-0.000
773.85	-0.000
774.03	-0.000
774.21	-0.000
774.39	-0.000
774.57	-0.000
774.75	-0.000
774.93	-0.000
775.11	-0.000
775.29	-0.000
775.47	-0.000
775.65	-0.000
775.83	-0.000
776.01	-0.000
776.19	-0.000
776.37	-0.000
776.55	-0.000
776.73	-0.000
776.91	-0.000
777.09	-0.000
777.27	-0.000
777.45	-0.000
777.63	-0.000
777.81	-0.000
777.99	-0.000
778.17	-0.000
778.35	-0.000
778.53	-0.000
778.71	-0.000
778.89	-0.000
779.07	-0.000
779.24	-0.000
779.42	-0.000
779.60	-0.000
779.78	-0.000
779.96	-0.000
780.14	-0.000
780.32	-0.000
780.50	-0.000
780.68	-0.000
780.86	-0.000
781.04	-0.000
781.22	-0.000
781.40	-0.000
781.58	-0.000
781.75	-0.000
781.93	-0.000
782.11	-0.000
782.29	-0.000
782.47	-0.000
782.65	-0.000
782.83	-0.000
783.01	-0.000
783.19	-0.000
783.37	-0.000
783.55	-0.000
783.72	-0.000
783.90	-0.000
784.08	-0.000
784.26	-0.000
784.44	-0.000
784.62	-0.000
784.80	-0.000
784.98	-0.000
785.16	-0.000
785.33	-0.000
785.51	-0.000
785.69	-0.000
785.87	-0.000
786.05	-0.000
786.23	-0.000
786.41	-0.000
786.59	-0.000
786.77	-0.000
786.94	-0.000
787.12	-0.000
787.30	-0.000
787.48	-0.000
787.66	-0.000
787.84	-0.000
788.02	-0.000
788.19	-0.000
788.37	-0.000
788.55	-0.000
788.73	-0.000
788.91	-0.000
789.09	-0.000
789.27	-0.000
789.44	-0.000
789.62	-0.000
789.80	-0.000
789.98	-0.000
790.16	-0.000
790.34	-0.000
790.51	-0.000
790.69	-0.000
790.87	-0.000
791.05	-0.000
791.23	-0.000
791.41	-0.000
791.58	-0.000
791.76	-0.000
791.94	-0.000
792.12	-0.000
792.30	-0.000
792.48	-0.000
792.65	-0.000
792.83	-0.000
793.01	-0.000
793.19	-0.000
793.37	-0.000
793.54	-0.000
793.72	-0.000
793.90	-0.000
794.08	-0.000
794.26	-0.000
794.43	-0.000
794.61	-0.000
794.79	-0.000
794.97	-0.000
795.15	-0.000
795.32	-0.000
795.50	-0.000
795.68	-0.000
795.86	-0.000
796.04	-0.000
796.21	-0.000
796.39	-0.000
796.57	-0.000
796.75	-0.000
796.92	-0.000
797.10	-0.000
797.28	-0.000
797.46	-0.000
797.64	-0.000
797.81	-0.000
797.99	-0.000
798.17	-0.000
798.35	-0.000
798.52	-0.000
798.70	-0.000
798.88	-0.000
799.06	-0.000
799.23	-0.000
799.41	-0.000
799.59	-0.000
799.77	-0.000
799.94	-0.000
800.12	-0.000
800.30	-0.000
800.48	-0.000
800.65	-0.000
800.83	-0.000
801.01	-0.000
801.19	-0.000
801.36	-0.000
801.54	-0.000
801.72	-0.000
801.90	-0.000
802.07	-0.000
802.25	-0.000
802.43	-0.000
802.60	-0.000
802.78	-0.000
802.96	-0.000
803.14	-0.000
803.31	-0.000
803.49	-0.000
803.67	-0.000
803.84	-0.000
804.02	-0.000
804.20	-0.000
804.38	-0.000
804.55	-0.000
804.73	-0.000
804.91	-0.000
805.08	-0.000
805.26	-0.000
805.44	-0.000
805.61	-0.000
805.79	-0.000
805.97	-0.000
806.15	-0.000
806.32	-0.000
806.50	-0.000
806.68	-0.000
806.85	-0.000
807.03	-0.000
807.21	-0.000
807.38	-0.000
807.56	-0.000
807.74	-0.000
807.91	-0.000
808.09	-0.000
808.27	-0.000
808.44	-0.000
808.62	-0.000
808.80	-0.000
808.97	-0.000
809.15	-0.000
809.33	-0.000
809.50	-0.000
809.68	-0.000
809.86	-0.000
810.03	-0.000
810.21	-0.000
810.39	-0.000
810.56	-0.000
810.74	-0.000
810.91	-0.000
811.09	-0.000
811.27	-0.000
811.44	-0.000
811.62	-0.000
811.80	-0.000
811.97	-0.000
812.15	-0.000
812.33	-0.000
812.50	-0.000
812.68	-0.000
812.85	-0.000
813.03	-0.000
813.21	-0.000
813.38	-0.000
813.56	-0.000
813.74	-0.000
813.91	-0.000
814.09	-0.000
814.26	-0.000
814.44	-0.000
814.62	-0.000
814.79	-0.000
814.97	-0.000
815.14	-0.000
815.32	-0.000
815.50	-0.000
815.67	-0.000
815.85	-0.000
816.02	-0.000
816.20	-0.000
816.38	-0.000
816.55	-0.000
816.73	-0.000
816.90	-0.000
817.08	-0.000
817.26	-0.000
817.43	-0.000
817.61	-0.000
817.78	-0.000
817.96	-0.000
818.13	-0.000
818.31	-0.000
818.49	-0.000
818.66	-0.000
818.84	-0.000
819.01	-0.000
819.19	-0.000
819.36	-0.000
819.54	-0.000
819.71	-0.000
819.89	-0.000
820.07	-0.000
820.24	-0.000
820.42	-0.000
820.59	-0.000
820.77	-0.000
820.94	-0.000
821.12	-0.000
821.29	-0.000
821.47	-0.000
821.64	-0.000
821.82	-0.000
822.00	-0.000
822.17	-0.000
822.35	-0.000
822.52	-0.000
822.70	-0.000
822.87	-0.000
823.05	-0.000
823.22	-0.000
823.40	-0.000
823.57	-0.000
823.75	-0.000
823.92	-0.000
824.10	-0.000
824.27	-0.000
824.45	-0.000
824.62	-0.000
824.80	-0.000
824.97	-0.000
825.15	-0.000
825.32	-0.000
825.50	-0.000
825.67	-0.000
825.85	-0.000
826.02	-0.000
826.20	-0.000
826.37	-0.000
826.55	-0.000
826.72	-0.000
826.90	-0.000
827.07	-0.000
827.25	-0.000
827.42	-0.000
827.60	-0.000
827.77	-0.000
827.95	-0.000
828.12	-0.000
828.30	-0.000
828.47	-0.000
828.65	-0.000
828.82	-0.000
829.00	-0.000
829.17	-0.000
829.34	-0.000
829.52	-0.000
829.69	-0.000
829.87	-0.000
830.04	-0.000
830.22	-0.000
830.39	-0.000
830.57	-0.000
830.74	-0.000
830.92	-0.000
831.09	-0.000
831.26	-0.000
831.44	-0.000
831.61	-0.000
831.79	-0.000
831.96	-0.000
832.14	-0.000
832.31	-0.000
832.49	-0.000
832.66	-0.000
832.83	-0.000
833.01	-0.000
833.18	-0.000
833.36	-0.000
833.53	-0.000
833.70	-0.000
833.88	-0.000
834.05	-0.000
834.23	-0.000
834.40	-0.000
834.58	-0.000
834.75	-0.000
834.92	-0.000
835.10	-0.000
835.27	-0.000
835.45	-0.000
835.62	-0.000
835.79	-0.000
835.97	-0.000
836.14	-0.000
836.32	-0.000
836.49	-0.000
836.66	-0.000
836.84	-0.000
837.01	-0.000
837.18	-0.000
837.36	-0.000
837.53	-0.000
837.71	-0.000
837.88	-0.000
838.05	-0.000
838.23	-0.000
838.40	-0.000
838.58	-0.000
838.75	-0.000
838.92	-0.000
839.10	-0.000
839.27	-0.000
839.44	-0.000
839.62	-0.000
839.79	-0.000
839.96	-0.000
840.14	-0.000
840.31	-0.000
840.48	-0.000
840.66	-0.000
840.83	-0.000
841.01	-0.000
841.18	-0.000
841.35	-0.000
841.53	-0.000
841.70	-0.000
841.87	-0.000
842.05	-0.000
842.22	-0.000
842.39	-0.000
842.57	-0.000
842.74	-0.000
842.91	-0.000
843.09	-0.000
843.26	-0.000
843.43	-0.000
843.60	-0.000
843.78	-0.000
843.95	-0.000
844.12	-0.000
844.30	-0.000
844.47	-0.000
844.64	-0.000
844.82	-0.000
844.99	-0.000
845.16	-0.000
845.34	-0.000
845.51	-0.000
845.68	-0.000
845.85	-0.000
846.03	-0.000
846.20	-0.000
846.37	-0.000
846.55	-0.000
846.72	-0.000
846.89	-0.000
847.06	-0.000
847.24	-0.000
847.41	-0.000
847.58	-0.000
847.76	-0.000
847.93	-0.000
848.10	-0.000
848.27	-0.000
848.45	-0.000
848.62	-0.000
848.79	-0.000
848.97	-0.000
849.14	-0.000
849.31	-0.000
849.48	-0.000
849.66	-0.000
849.83	-0.000
850.00	-0.000
850.17	-0.000
850.35	-0.000
850.52	-0.000
850.69	-0.000
850.86	-0.000
851.04	-0.000
851.21	-0.000
851.38	-0.000
851.55	-0.000
851.72	-0.000
851.90	-0.000
852.07	-0.000
852.24	-0.000
852.41	-0.000
852.59	-0.000
852.76	-0.000
852.93	-0.000
853.10	-0.000
853.28	-0.000
853.45	-0.000
853.62	-0.000
853.79	-0.000
853.96	-0.000
854.14	-0.000
854.31	-0.000
854.48	-0.000
854.65	-0.000
854.82	-0.000
855.00	-0.000
855.17	-0.000
855.34	-0.000
855.51	-0.000
855.68	-0.000
855.86	-0.000
856.03	-0.000
856.20	-0.000
856.37	-0.000
856.54	-0.000
856.72	-0.000
856.89	-0.000
857.06	-0.000
857.23	-0.000
857.40	-0.000
857.57	-0.000
857.75	-0.000
857.92	-0.000
858.09	-0.000
858.26	-0.000
858.43	-0.000
858.60	-0.000
858.78	-0.000
858.95	-0.000
859.12	-0.000
859.29	-0.000
859.46	-0.000
859.63	-0.000
859.81	-0.000
859.98	-0.000
860.15	-0.000
860.32	-0.000
860.49	-0.000
860.66	-0.000
860.83	-0.000
861.01	-0.000
861.18	-0.000
861.35	-0.000
861.52	-0.000
861.69	-0.000
861.86	-0.000
862.03	-0.000
862.21	-0.000
862.38	-0.000
862.55	-0.000
862.72	-0.000
862.89	-0.000
863.06	-0.000
863.23	-0.000
863.40	-0.000
863.58	-0.000
863.75	-0.000
863.92	-0.000
864.09	-0.000
864.26	-0.000
864.43	-0.000
864.60	-0.000
864.77	-0.000
864.94	-0.000
865.11	-0.000
865.29	-0.000
865.46	-0.000
865.63	-0.000
865.80	-0.000
865.97	-0.000
866.14	-0.000
866.31	-0.000
866.48	-0.000
866.65	-0.000
866.82	-0.000
866.99	-0.000
867.16	-0.000
867.34	-0.000
867.51	-0.000
867.68	-0.000
867.85	-0.000
868.02	-0.000
868.19	-0.000
868.36	-0.000
868.53	-0.000
868.70	-0.000
868.87	-0.000
869.04	-0.000
869.21	-0.000
869.38	-0.000
869.55	-0.000
869.72	-0.000
869.89	-0.000
870.06	-0.000
870.24	-0.000
870.41	-0.000
870.58	-0.000
870.75	-0.000
870.92	-0.000
871.09	-0.000
871.26	-0.000
871.43	-0.000
871.60	-0.000
871.77	-0.000
871.94	-0.000
872.11	-0.000
872.28	-0.000
872.45	-0.000
872.62	-0.000
872.79	-0.000
872.96	-0.000
873.13	-0.000
873.30	-0.000
873.47	-0.000
873.64	-0.000
873.81	-0.000
873.98	-0.000
874.15	-0.000
874.32	-0.000
874.49	-0.000
874.66	-0.000
874.83	-0.000
875.00	-0.000
875.17	-0.000
875.34	-0.000
875.51	-0.000
875.68	-0.000
875.85	-0.000
876.02	-0.000
876.19	-0.000
876.36	-0.000
876.53	-0.000
876.70	-0.000
876.87	-0.000
877.04	-0.000
877.21	-0.000
877.38	-0.000
877.55	-0.000
877.72	-0.000
877.89	-0.000
878.06	-0.000
878.23	-0.000
878.39	-0.000
878.56	-0.000
878.73	-0.000
878.90	-0.000
879.07	-0.000
879.24	-0.000
879.41	-0.000
879.58	-0.000
879.75	-0.000
879.92	-0.000
880.09	-0.000
880.26	-0.000
880.43	-0.000
880.60	-0.000
880.77	-0.000
880.94	-0.000
881.11	-0.000
881.27	-0.000
881.44	-0.000
881.61	-0.000
881.78	-0.000
881.95	-0.000
882.12	-0.000
882.29	-0.000
882.46	-0.000
882.63	-0.000
882.80	-0.000
882.97	-0.000
883.14	-0.000
883.30	-0.000
883.47	-0.000
883.64	-0.000
883.81	-0.000
883.98	-0.000
884.15	-0.000
884.32	-0.000
884.49	-0.000
884.66	-0.000
884.82	-0.000
884.99	-0.000
885.16	-0.000
885.33	-0.000
885.50	-0.000
885.67	-0.000
885.84	-0.000
886.01	-0.000
886.17	-0.000
886.34	-0.000
886.51	-0.000
886.68	-0.000
886.85	-0.000
887.02	-0.000
887.19	-0.000
887.36	-0.000
887.52	-0.000
887.69	-0.000
887.86	-0.000
888.03	-0.000
888.20	-0.000
888.37	-0.000
888.54	-0.000
888.70	-0.000
888.87	-0.000
889.04	-0.000
889.21	-0.000
889.38	-0.000
889.55	-0.000
889.71	-0.000
889.88	-0.000
890.05	-0.000
890.22	-0.000
890.39	-0.000
>>>>>End Processed Spectral Data<<<<<
