SpectraSuite Data File
++++++++++++++++++++++++++++++++++++
Date: Fri Jun 19 17:04:49 CEST 2015
User: introlabs
Dark Spectrum Present: Yes
Reference Spectrum Present: Yes
Number of Sampled Component Spectra: 1
Spectrometers: USB4H08886
Integration Time (usec): 745692 (USB4H08886)
Spectra Averaged: 5 (USB4H08886)
Boxcar Smoothing: 5 (USB4H08886)
Correct for Electrical Dark: Yes (USB4H08886)
Strobe/Lamp Enabled: No (USB4H08886)
Correct for Detector Non-linearity: Yes (USB4H08886)
Correct for Stray Light: Yes (USB4H08886)
Number of Pixels in Processed Spectrum: 3648
>>>>>Begin Processed Spectral Data<<<<<
178.14	-0.000
178.36	-0.000
178.57	-0.000
178.79	-0.000
179.01	-0.000
179.22	-0.000
179.44	-0.000
179.65	-0.000
179.87	-0.000
180.08	-0.000
180.30	-0.000
180.52	-0.000
180.73	-0.000
180.95	-0.000
181.16	-0.000
181.38	-0.000
181.59	-0.000
181.81	-0.000
182.03	-0.000
182.24	-0.000
182.46	-0.000
182.67	-0.000
182.89	-0.000
183.10	-0.000
183.32	-0.000
183.54	-0.000
183.75	-0.000
183.97	-0.000
184.18	-0.000
184.40	-0.000
184.61	-0.000
184.83	-0.000
185.04	-0.000
185.26	-0.000
185.48	-0.000
185.69	-0.000
185.91	-0.000
186.12	-0.000
186.34	-0.000
186.55	-0.000
186.77	-0.000
186.98	-0.000
187.20	-0.000
187.42	-0.000
187.63	-0.000
187.85	-0.000
188.06	-0.000
188.28	-0.000
188.49	-0.000
188.71	-0.000
188.92	-0.000
189.14	-0.000
189.36	-0.000
189.57	-0.000
189.79	-0.000
190.00	-0.000
190.22	-0.000
190.43	-0.000
190.65	-0.000
190.86	-0.000
191.08	-0.000
191.29	-0.000
191.51	-0.000
191.72	-0.000
191.94	-0.000
192.16	-0.000
192.37	-0.000
192.59	-0.000
192.80	-0.000
193.02	-0.000
193.23	-0.000
193.45	-0.000
193.66	-0.000
193.88	-0.000
194.09	-0.000
194.31	-0.000
194.52	-0.000
194.74	-0.000
194.95	-0.000
195.17	-0.000
195.38	-0.000
195.60	-0.000
195.81	-0.000
196.03	-0.000
196.25	-0.000
196.46	-0.000
196.68	-0.000
196.89	-0.000
197.11	-0.000
197.32	-0.000
197.54	-0.000
197.75	-0.000
197.97	-0.000
198.18	-0.000
198.40	-0.000
198.61	-0.000
198.83	-0.000
199.04	-0.000
199.26	-0.000
199.47	-0.000
199.69	-0.000
199.90	-0.000
200.12	-0.000
200.33	-0.000
200.55	-0.000
200.76	-0.000
200.98	-0.000
201.19	-0.000
201.41	-0.000
201.62	-0.000
201.84	-0.000
202.05	-0.000
202.27	-0.000
202.48	-0.000
202.70	-0.000
202.91	-0.000
203.13	-0.000
203.34	-0.000
203.56	-0.000
203.77	-0.000
203.99	-0.000
204.20	-0.000
204.42	-0.000
204.63	-0.000
204.85	-0.000
205.06	-0.000
205.28	-0.000
205.49	-0.000
205.71	-0.000
205.92	-0.000
206.14	-0.000
206.35	-0.000
206.56	-0.000
206.78	-0.000
206.99	-0.000
207.21	-0.000
207.42	-0.000
207.64	-0.000
207.85	-0.000
208.07	-0.000
208.28	-0.000
208.50	-0.000
208.71	-0.000
208.93	-0.000
209.14	-0.000
209.36	-0.000
209.57	-0.000
209.79	-0.000
210.00	-0.000
210.22	-0.000
210.43	-0.000
210.64	-0.000
210.86	-0.000
211.07	-0.000
211.29	-0.000
211.50	-0.000
211.72	-0.000
211.93	-0.000
212.15	-0.000
212.36	-0.000
212.58	-0.000
212.79	-0.000
213.01	-0.000
213.22	-0.000
213.43	-0.000
213.65	-0.000
213.86	-0.000
214.08	-0.000
214.29	-0.000
214.51	-0.000
214.72	-0.000
214.94	-0.000
215.15	-0.000
215.36	-0.000
215.58	-0.000
215.79	-0.000
216.01	-0.000
216.22	-0.000
216.44	-0.000
216.65	-0.000
216.87	-0.000
217.08	-0.000
217.29	-0.000
217.51	-0.000
217.72	-0.000
217.94	-0.000
218.15	-0.000
218.37	-0.000
218.58	-0.000
218.80	-0.000
219.01	-0.000
219.22	-0.000
219.44	-0.000
219.65	-0.000
219.87	-0.000
220.08	-0.000
220.30	-0.000
220.51	-0.000
220.72	-0.000
220.94	-0.000
221.15	-0.000
221.37	-0.000
221.58	-0.000
221.79	-0.000
222.01	-0.000
222.22	-0.000
222.44	-0.000
222.65	-0.000
222.87	-0.000
223.08	-0.000
223.29	-0.000
223.51	-0.000
223.72	-0.000
223.94	-0.000
224.15	-0.000
224.36	-0.000
224.58	-0.000
224.79	-0.000
225.01	-0.000
225.22	-0.000
225.44	-0.000
225.65	-0.000
225.86	-0.000
226.08	-0.000
226.29	-0.000
226.51	-0.000
226.72	-0.000
226.93	-0.000
227.15	-0.000
227.36	-0.000
227.58	-0.000
227.79	-0.000
228.00	-0.000
228.22	-0.000
228.43	-0.000
228.65	-0.000
228.86	-0.000
229.07	-0.000
229.29	-0.000
229.50	-0.000
229.72	-0.000
229.93	-0.000
230.14	-0.000
230.36	-0.000
230.57	-0.000
230.78	-0.000
231.00	-0.000
231.21	-0.000
231.43	-0.000
231.64	-0.000
231.85	-0.000
232.07	-0.000
232.28	-0.000
232.50	-0.000
232.71	-0.000
232.92	-0.000
233.14	-0.000
233.35	-0.000
233.56	-0.000
233.78	-0.000
233.99	-0.000
234.21	-0.000
234.42	-0.000
234.63	-0.000
234.85	-0.000
235.06	-0.000
235.27	-0.000
235.49	-0.000
235.70	-0.000
235.91	-0.000
236.13	-0.000
236.34	-0.000
236.56	-0.000
236.77	-0.000
236.98	-0.000
237.20	-0.000
237.41	-0.000
237.62	-0.000
237.84	-0.000
238.05	-0.000
238.26	-0.000
238.48	-0.000
238.69	-0.000
238.91	-0.000
239.12	-0.000
239.33	-0.000
239.55	-0.000
239.76	-0.000
239.97	-0.000
240.19	-0.000
240.40	-0.000
240.61	-0.000
240.83	-0.000
241.04	-0.000
241.25	-0.000
241.47	-0.000
241.68	-0.000
241.89	-0.000
242.11	-0.000
242.32	-0.000
242.53	-0.000
242.75	-0.000
242.96	-0.000
243.17	-0.000
243.39	-0.000
243.60	-0.000
243.81	-0.000
244.03	-0.000
244.24	-0.000
244.45	-0.000
244.67	-0.000
244.88	-0.000
245.09	-0.000
245.31	-0.000
245.52	-0.000
245.73	-0.000
245.95	-0.000
246.16	-0.000
246.37	-0.000
246.59	-0.000
246.80	-0.000
247.01	-0.000
247.23	-0.000
247.44	-0.000
247.65	-0.000
247.87	-0.000
248.08	-0.000
248.29	-0.000
248.51	-0.000
248.72	-0.000
248.93	-0.000
249.15	-0.000
249.36	-0.000
249.57	-0.000
249.78	-0.000
250.00	-0.000
250.21	-0.000
250.42	-0.000
250.64	-0.000
250.85	-0.000
251.06	-0.000
251.28	-0.000
251.49	-0.000
251.70	-0.000
251.92	-0.000
252.13	-0.000
252.34	-0.000
252.55	-0.000
252.77	-0.000
252.98	-0.000
253.19	-0.000
253.41	-0.000
253.62	-0.000
253.83	-0.000
254.05	-0.000
254.26	-0.000
254.47	-0.000
254.68	-0.000
254.90	-0.000
255.11	-0.000
255.32	-0.000
255.54	-0.000
255.75	-0.000
255.96	-0.000
256.17	-0.000
256.39	-0.000
256.60	-0.000
256.81	-0.000
257.03	-0.000
257.24	-0.000
257.45	-0.000
257.66	-0.000
257.88	-0.000
258.09	-0.000
258.30	-0.000
258.51	-0.000
258.73	-0.000
258.94	-0.000
259.15	-0.000
259.37	-0.000
259.58	-0.000
259.79	-0.000
260.00	-0.000
260.22	-0.000
260.43	-0.000
260.64	-0.000
260.85	-0.000
261.07	-0.000
261.28	-0.000
261.49	-0.000
261.71	-0.000
261.92	-0.000
262.13	-0.000
262.34	-0.000
262.56	-0.000
262.77	-0.000
262.98	-0.000
263.19	-0.000
263.41	-0.000
263.62	-0.000
263.83	-0.000
264.04	-0.000
264.26	-0.000
264.47	-0.000
264.68	-0.000
264.89	-0.000
265.11	-0.000
265.32	-0.000
265.53	-0.000
265.74	-0.000
265.96	-0.000
266.17	-0.000
266.38	-0.000
266.59	-0.000
266.81	-0.000
267.02	-0.000
267.23	-0.000
267.44	-0.000
267.65	-0.000
267.87	-0.000
268.08	-0.000
268.29	-0.000
268.50	-0.000
268.72	-0.000
268.93	-0.000
269.14	-0.000
269.35	-0.000
269.57	-0.000
269.78	-0.000
269.99	-0.000
270.20	-0.000
270.41	-0.000
270.63	-0.000
270.84	-0.000
271.05	-0.000
271.26	-0.000
271.48	-0.000
271.69	-0.000
271.90	-0.000
272.11	-0.000
272.32	-0.000
272.54	-0.000
272.75	-0.000
272.96	-0.000
273.17	-0.000
273.39	-0.000
273.60	-0.000
273.81	-0.000
274.02	-0.000
274.23	-0.000
274.45	-0.000
274.66	-0.000
274.87	-0.000
275.08	-0.000
275.29	-0.000
275.51	-0.000
275.72	-0.000
275.93	-0.000
276.14	-0.000
276.35	-0.000
276.57	-0.000
276.78	-0.000
276.99	-0.000
277.20	-0.000
277.41	-0.000
277.63	-0.000
277.84	-0.000
278.05	-0.000
278.26	-0.000
278.47	-0.000
278.69	-0.000
278.90	-0.000
279.11	-0.000
279.32	-0.000
279.53	-0.000
279.74	-0.000
279.96	-0.000
280.17	-0.000
280.38	-0.000
280.59	-0.000
280.80	-0.000
281.02	-0.000
281.23	-0.000
281.44	-0.000
281.65	-0.000
281.86	-0.000
282.07	-0.000
282.29	-0.000
282.50	-0.000
282.71	-0.000
282.92	-0.000
283.13	-0.000
283.35	-0.000
283.56	-0.000
283.77	-0.000
283.98	-0.000
284.19	-0.000
284.40	-0.000
284.62	-0.000
284.83	-0.000
285.04	-0.000
285.25	-0.000
285.46	-0.000
285.67	-0.000
285.88	-0.000
286.10	-0.000
286.31	-0.000
286.52	-0.000
286.73	-0.000
286.94	-0.000
287.15	-0.000
287.37	-0.000
287.58	-0.000
287.79	-0.000
288.00	-0.000
288.21	-0.000
288.42	-0.000
288.63	-0.000
288.85	-0.000
289.06	-0.000
289.27	-0.000
289.48	-0.000
289.69	-0.000
289.90	-0.000
290.11	-0.000
290.33	-0.000
290.54	-0.000
290.75	-0.000
290.96	-0.000
291.17	-0.000
291.38	-0.000
291.59	-0.000
291.81	-0.000
292.02	-0.000
292.23	-0.000
292.44	-0.000
292.65	-0.000
292.86	-0.000
293.07	-0.000
293.28	-0.000
293.50	-0.000
293.71	-0.000
293.92	-0.000
294.13	-0.000
294.34	-0.000
294.55	-0.000
294.76	-0.000
294.97	-0.000
295.19	-0.000
295.40	-0.000
295.61	-0.000
295.82	-0.000
296.03	-0.000
296.24	-0.000
296.45	-0.000
296.66	-0.000
296.87	-0.000
297.09	-0.000
297.30	-0.000
297.51	-0.000
297.72	-0.000
297.93	-0.000
298.14	-0.000
298.35	-0.000
298.56	-0.000
298.77	-0.000
298.99	-0.000
299.20	-0.000
299.41	-0.000
299.62	-0.000
299.83	-0.000
300.04	-0.000
300.25	-0.000
300.46	-0.000
300.67	-0.000
300.88	-0.000
301.10	-0.000
301.31	-0.000
301.52	-0.000
301.73	-0.000
301.94	-0.000
302.15	-0.000
302.36	-0.000
302.57	-0.000
302.78	-0.000
302.99	-0.000
303.20	-0.000
303.41	-0.000
303.63	-0.000
303.84	-0.000
304.05	-0.000
304.26	-0.000
304.47	-0.000
304.68	-0.000
304.89	-0.000
305.10	-0.000
305.31	-0.000
305.52	-0.000
305.73	-0.000
305.94	-0.000
306.15	-0.000
306.37	-0.000
306.58	-0.000
306.79	-0.000
307.00	-0.000
307.21	-0.000
307.42	-0.000
307.63	-0.000
307.84	-0.000
308.05	-0.000
308.26	-0.000
308.47	-0.000
308.68	-0.000
308.89	-0.000
309.10	-0.000
309.31	-0.000
309.52	-0.000
309.73	-0.000
309.95	-0.000
310.16	-0.000
310.37	-0.000
310.58	-0.000
310.79	-0.000
311.00	-0.000
311.21	-0.000
311.42	-0.000
311.63	-0.000
311.84	-0.000
312.05	-0.000
312.26	-0.000
312.47	-0.000
312.68	-0.000
312.89	-0.000
313.10	-0.000
313.31	-0.000
313.52	-0.000
313.73	-0.000
313.94	-0.000
314.15	-0.000
314.36	-0.000
314.57	-0.000
314.78	-0.000
314.99	-0.000
315.21	-0.000
315.42	-0.000
315.63	-0.000
315.84	-0.000
316.05	-0.000
316.26	-0.000
316.47	-0.000
316.68	-0.000
316.89	-0.000
317.10	-0.000
317.31	-0.000
317.52	-0.000
317.73	-0.000
317.94	-0.000
318.15	-0.000
318.36	-0.000
318.57	-0.000
318.78	-0.000
318.99	-0.000
319.20	-0.000
319.41	-0.000
319.62	-0.000
319.83	-0.000
320.04	-0.000
320.25	-0.000
320.46	-0.000
320.67	-0.000
320.88	-0.000
321.09	-0.000
321.30	-0.000
321.51	-0.000
321.72	-0.000
321.93	-0.000
322.14	-0.000
322.35	-0.000
322.56	-0.000
322.77	-0.000
322.98	-0.000
323.19	-0.000
323.40	-0.000
323.61	-0.000
323.82	-0.000
324.03	-0.000
324.24	-0.000
324.45	-0.000
324.66	-0.000
324.87	-0.000
325.08	-0.000
325.29	-0.000
325.50	-0.000
325.71	-0.000
325.92	-0.000
326.13	-0.000
326.34	-0.000
326.55	-0.000
326.76	-0.000
326.97	-0.000
327.18	-0.000
327.39	-0.000
327.60	-0.000
327.80	-0.000
328.01	-0.000
328.22	-0.000
328.43	-0.000
328.64	-0.000
328.85	-0.000
329.06	-0.000
329.27	-0.000
329.48	-0.000
329.69	-0.000
329.90	-0.000
330.11	-0.000
330.32	-0.000
330.53	-0.000
330.74	-0.000
330.95	-0.000
331.16	-0.000
331.37	-0.000
331.58	-0.000
331.79	-0.000
332.00	-0.000
332.21	-0.000
332.42	-0.000
332.63	-0.000
332.83	-0.000
333.04	-0.000
333.25	-0.000
333.46	-0.000
333.67	-0.000
333.88	-0.000
334.09	-0.000
334.30	-0.000
334.51	-0.000
334.72	-0.000
334.93	-0.000
335.14	-0.000
335.35	-0.000
335.56	-0.000
335.77	-0.000
335.98	-0.000
336.18	-0.000
336.39	-0.000
336.60	-0.000
336.81	-0.000
337.02	-0.000
337.23	-0.000
337.44	-0.000
337.65	-0.000
337.86	-0.000
338.07	-0.000
338.28	-0.000
338.49	-0.000
338.70	-0.000
338.91	-0.000
339.11	-0.000
339.32	-0.000
339.53	-0.000
339.74	-0.000
339.95	-0.000
340.16	-0.000
340.37	-0.000
340.58	-0.000
340.79	-0.000
341.00	-0.000
341.21	-0.000
341.41	-0.000
341.62	-0.000
341.83	-0.000
342.04	-0.000
342.25	-0.000
342.46	-0.000
342.67	-0.000
342.88	-0.000
343.09	-0.000
343.30	-0.000
343.50	-0.000
343.71	-0.000
343.92	-0.000
344.13	-0.000
344.34	-0.000
344.55	-0.000
344.76	-0.000
344.97	-0.000
345.18	-0.000
345.38	-0.000
345.59	-0.000
345.80	-0.000
346.01	-0.000
346.22	-0.000
346.43	-0.000
346.64	-0.000
346.85	-0.000
347.06	-0.000
347.26	-0.000
347.47	-0.000
347.68	-0.000
347.89	-0.000
348.10	-0.000
348.31	-0.000
348.52	-0.000
348.73	-0.000
348.93	-0.000
349.14	-0.000
349.35	-0.000
349.56	-0.000
349.77	-0.000
349.98	-0.000
350.19	-0.000
350.39	-0.000
350.60	-0.000
350.81	-0.000
351.02	-0.000
351.23	-0.000
351.44	-0.000
351.65	-0.000
351.86	-0.000
352.06	-0.000
352.27	-0.000
352.48	-0.000
352.69	-0.000
352.90	-0.000
353.11	-0.000
353.31	-0.000
353.52	-0.000
353.73	-0.000
353.94	-0.000
354.15	-0.000
354.36	-0.000
354.57	-0.000
354.77	-0.000
354.98	-0.000
355.19	-0.000
355.40	-0.000
355.61	-0.000
355.82	-0.000
356.02	-0.000
356.23	-0.000
356.44	-0.000
356.65	-0.000
356.86	-0.000
357.07	-0.000
357.27	-0.000
357.48	-0.000
357.69	-0.000
357.90	-0.000
358.11	-0.000
358.32	-0.000
358.52	-0.000
358.73	-0.000
358.94	-0.000
359.15	-0.000
359.36	-0.000
359.56	-0.000
359.77	-0.000
359.98	-0.000
360.19	-0.000
360.40	-0.000
360.61	-0.000
360.81	-0.000
361.02	-0.000
361.23	-0.000
361.44	-0.000
361.65	-0.000
361.85	-0.000
362.06	-0.000
362.27	-0.000
362.48	-0.000
362.69	-0.000
362.89	-0.000
363.10	-0.000
363.31	-0.000
363.52	-0.000
363.73	-0.000
363.93	-0.000
364.14	-0.000
364.35	-0.000
364.56	-0.000
364.77	-0.000
364.97	-0.000
365.18	-0.000
365.39	-0.000
365.60	-0.000
365.81	-0.000
366.01	-0.000
366.22	-0.000
366.43	-0.000
366.64	-0.000
366.84	-0.000
367.05	-0.000
367.26	-0.000
367.47	-0.000
367.68	-0.000
367.88	-0.000
368.09	-0.000
368.30	-0.000
368.51	-0.000
368.71	-0.000
368.92	-0.000
369.13	-0.000
369.34	-0.000
369.55	-0.000
369.75	-0.000
369.96	-0.000
370.17	-0.000
370.38	-0.000
370.58	-0.000
370.79	-0.000
371.00	-0.000
371.21	-0.000
371.41	-0.000
371.62	-0.000
371.83	-0.000
372.04	-0.000
372.24	-0.000
372.45	-0.000
372.66	-0.000
372.87	-0.000
373.07	-0.000
373.28	-0.000
373.49	-0.000
373.70	-0.000
373.90	-0.000
374.11	-0.000
374.32	-0.000
374.53	-0.000
374.73	-0.000
374.94	-0.000
375.15	-0.000
375.36	-0.000
375.56	-0.000
375.77	-0.000
375.98	-0.000
376.19	-0.000
376.39	-0.000
376.60	-0.000
376.81	-0.000
377.02	-0.000
377.22	-0.000
377.43	-0.000
377.64	-0.000
377.84	-0.000
378.05	-0.000
378.26	-0.000
378.47	-0.000
378.67	-0.000
378.88	-0.000
379.09	-0.000
379.30	-0.000
379.50	-0.000
379.71	-0.000
379.92	-0.000
380.12	-0.000
380.33	-0.000
380.54	-0.000
380.75	-0.000
380.95	-0.000
381.16	-0.000
381.37	-0.000
381.57	-0.000
381.78	-0.000
381.99	-0.000
382.20	-0.000
382.40	-0.000
382.61	-0.000
382.82	-0.000
383.02	-0.000
383.23	-0.000
383.44	-0.000
383.64	-0.000
383.85	-0.000
384.06	-0.000
384.27	-0.000
384.47	-0.000
384.68	-0.000
384.89	-0.000
385.09	-0.000
385.30	-0.000
385.51	-0.000
385.71	-0.000
385.92	-0.000
386.13	-0.000
386.33	-0.000
386.54	-0.000
386.75	-0.000
386.95	-0.000
387.16	-0.000
387.37	-0.000
387.58	-0.000
387.78	-0.000
387.99	-0.000
388.20	-0.000
388.40	-0.000
388.61	-0.000
388.82	-0.000
389.02	-0.000
389.23	-0.000
389.44	-0.000
389.64	-0.000
389.85	-0.000
390.06	-0.000
390.26	-0.000
390.47	-0.000
390.68	-0.000
390.88	-0.000
391.09	-0.000
391.30	-0.000
391.50	-0.000
391.71	-0.000
391.92	-0.000
392.12	-0.000
392.33	-0.000
392.53	-0.000
392.74	-0.000
392.95	-0.000
393.15	-0.000
393.36	-0.000
393.57	-0.000
393.77	-0.000
393.98	-0.000
394.19	-0.000
394.39	-0.000
394.60	-0.000
394.81	-0.000
395.01	-0.000
395.22	-0.000
395.43	-0.000
395.63	-0.000
395.84	-0.000
396.04	-0.000
396.25	-0.000
396.46	-0.000
396.66	-0.000
396.87	-0.000
397.08	-0.000
397.28	-0.000
397.49	-0.000
397.69	-0.000
397.90	5.101
398.11	-0.000
398.31	-0.000
398.52	2.895
398.73	3.469
398.93	3.253
399.14	3.156
399.34	3.055
399.55	3.260
399.76	3.301
399.96	3.887
400.17	3.598
400.37	3.248
400.58	-0.000
400.79	-0.000
400.99	-0.000
401.20	-0.000
401.41	-0.000
401.61	-0.000
401.82	-0.000
402.02	-0.000
402.23	-0.000
402.44	-0.000
402.64	-0.000
402.85	-0.000
403.05	-0.000
403.26	-0.000
403.47	-0.000
403.67	-0.000
403.88	-0.000
404.08	2.640
404.29	2.529
404.50	2.508
404.70	2.526
404.91	2.484
405.11	2.387
405.32	2.409
405.52	2.404
405.73	2.406
405.94	2.381
406.14	2.510
406.35	2.605
406.55	2.624
406.76	2.516
406.97	2.578
407.17	2.765
407.38	2.820
407.58	2.785
407.79	3.230
407.99	4.711
408.20	-0.000
408.41	2.883
408.61	2.733
408.82	2.726
409.02	2.723
409.23	2.629
409.43	2.514
409.64	2.527
409.84	2.500
410.05	2.375
410.26	2.318
410.46	2.305
410.67	2.321
410.87	2.389
411.08	2.483
411.28	2.517
411.49	2.606
411.69	2.519
411.90	2.657
412.11	2.765
412.31	2.809
412.52	2.740
412.72	2.782
412.93	2.741
413.13	2.732
413.34	2.539
413.54	2.695
413.75	2.861
413.95	2.867
414.16	2.630
414.37	2.896
414.57	2.924
414.78	3.499
414.98	3.441
415.19	-0.000
415.39	2.825
415.60	3.195
415.80	3.013
416.01	2.728
416.21	2.826
416.42	2.815
416.62	2.491
416.83	2.489
417.03	2.447
417.24	2.429
417.44	2.353
417.65	2.352
417.86	2.341
418.06	2.262
418.27	2.210
418.47	2.259
418.68	2.254
418.88	2.265
419.09	2.238
419.29	2.255
419.50	2.261
419.70	2.272
419.91	2.252
420.11	2.198
420.32	2.268
420.52	2.262
420.73	2.258
420.93	2.293
421.14	2.362
421.34	2.341
421.55	2.271
421.75	2.264
421.96	2.280
422.16	2.292
422.37	2.278
422.57	2.214
422.78	2.257
422.98	2.177
423.19	2.147
423.39	2.111
423.60	2.202
423.80	2.229
424.01	2.218
424.21	2.305
424.42	2.327
424.62	2.328
424.83	2.309
425.03	2.314
425.23	2.344
425.44	2.336
425.64	2.365
425.85	2.305
426.05	2.299
426.26	2.296
426.46	2.176
426.67	2.164
426.87	2.290
427.08	2.293
427.28	2.243
427.49	2.290
427.69	2.288
427.90	2.236
428.10	2.175
428.31	2.185
428.51	2.240
428.71	2.238
428.92	2.283
429.12	2.198
429.33	2.211
429.53	2.367
429.74	2.677
429.94	2.742
430.15	2.705
430.35	2.689
430.56	2.541
430.76	2.469
430.96	2.519
431.17	2.387
431.37	2.321
431.58	2.295
431.78	2.185
431.99	2.022
432.19	2.084
432.40	2.145
432.60	2.167
432.80	2.238
433.01	2.223
433.21	2.218
433.42	2.260
433.62	2.267
433.83	2.269
434.03	2.359
434.23	2.444
434.44	2.378
434.64	2.284
434.85	2.506
435.05	2.592
435.26	2.569
435.46	2.543
435.66	2.549
435.87	2.557
436.07	2.549
436.28	2.377
436.48	2.293
436.69	2.285
436.89	2.298
437.09	2.115
437.30	2.088
437.50	2.090
437.71	2.593
437.91	2.571
438.11	2.633
438.32	3.090
438.52	3.062
438.73	3.045
438.93	2.790
439.13	2.749
439.34	-0.000
439.54	3.157
439.75	3.374
439.95	2.284
440.15	2.494
440.36	2.461
440.56	2.365
440.77	2.389
440.97	2.411
441.17	2.365
441.38	2.435
441.58	2.302
441.79	2.299
441.99	2.277
442.19	2.216
442.40	2.128
442.60	2.122
442.81	2.080
443.01	2.073
443.21	2.068
443.42	2.075
443.62	2.047
443.82	2.039
444.03	2.065
444.23	2.061
444.44	2.082
444.64	2.072
444.84	2.106
445.05	2.111
445.25	2.097
445.45	2.102
445.66	2.134
445.86	2.127
446.06	2.186
446.27	2.160
446.47	2.237
446.68	2.183
446.88	2.152
447.08	2.122
447.29	2.146
447.49	2.157
447.69	2.151
447.90	2.136
448.10	2.214
448.30	2.139
448.51	2.207
448.71	2.145
448.91	2.198
449.12	2.194
449.32	2.275
449.52	2.244
449.73	2.354
449.93	2.339
450.14	2.379
450.34	2.342
450.54	2.417
450.75	2.305
450.95	2.298
451.15	2.286
451.36	2.371
451.56	2.256
451.76	2.263
451.97	2.198
452.17	2.209
452.37	2.168
452.58	2.126
452.78	2.124
452.98	2.180
453.19	2.191
453.39	2.234
453.59	2.190
453.79	2.210
454.00	2.223
454.20	2.198
454.40	2.229
454.61	2.287
454.81	2.300
455.01	2.266
455.22	2.300
455.42	2.328
455.62	2.255
455.83	2.243
456.03	2.337
456.23	2.351
456.44	2.383
456.64	2.334
456.84	2.330
457.04	2.347
457.25	2.362
457.45	2.251
457.65	2.238
457.86	2.265
458.06	2.250
458.26	2.152
458.47	2.140
458.67	2.156
458.87	2.161
459.07	2.114
459.28	2.146
459.48	2.172
459.68	2.173
459.89	2.140
460.09	2.104
460.29	2.119
460.49	2.151
460.70	2.145
460.90	2.145
461.10	2.148
461.31	2.162
461.51	2.116
461.71	2.195
461.91	2.207
462.12	2.243
462.32	2.235
462.52	2.245
462.72	2.312
462.93	2.295
463.13	2.249
463.33	2.290
463.53	2.290
463.74	2.282
463.94	2.136
464.14	2.175
464.35	2.185
464.55	2.184
464.75	2.158
464.95	2.109
465.16	2.145
465.36	2.131
465.56	2.127
465.76	2.120
465.97	2.133
466.17	2.150
466.37	2.092
466.57	2.110
466.78	2.135
466.98	2.132
467.18	2.100
467.38	2.084
467.59	2.106
467.79	2.146
467.99	2.133
468.19	2.131
468.39	2.182
468.60	2.185
468.80	2.132
469.00	2.159
469.20	2.188
469.41	2.197
469.61	2.186
469.81	2.196
470.01	2.171
470.22	2.174
470.42	2.158
470.62	2.117
470.82	2.136
471.02	2.142
471.23	2.082
471.43	2.079
471.63	2.133
471.83	2.134
472.04	2.109
472.24	2.065
472.44	2.185
472.64	2.190
472.84	2.157
473.05	2.141
473.25	2.186
473.45	2.186
473.65	2.150
473.85	2.135
474.06	2.127
474.26	2.108
474.46	2.164
474.66	2.071
474.86	2.076
475.07	2.067
475.27	2.059
475.47	2.016
475.67	2.014
475.87	2.056
476.08	2.011
476.28	2.050
476.48	2.087
476.68	2.046
476.88	2.014
477.09	2.025
477.29	2.051
477.49	2.046
477.69	2.043
477.89	2.050
478.09	2.017
478.30	2.057
478.50	2.006
478.70	1.976
478.90	1.968
479.10	2.012
479.31	2.041
479.51	2.013
479.71	2.009
479.91	1.999
480.11	1.980
480.31	1.978
480.52	1.945
480.72	1.941
480.92	1.935
481.12	1.926
481.32	1.889
481.52	1.857
481.72	1.853
481.93	1.902
482.13	1.911
482.33	1.908
482.53	1.886
482.73	1.899
482.93	1.910
483.14	1.904
483.34	1.893
483.54	1.903
483.74	1.880
483.94	1.870
484.14	1.816
484.34	1.816
484.55	1.812
484.75	1.813
484.95	1.794
485.15	1.791
485.35	1.788
485.55	1.785
485.75	1.767
485.96	1.778
486.16	1.793
486.36	1.794
486.56	1.777
486.76	1.788
486.96	1.800
487.16	1.795
487.36	1.786
487.57	1.787
487.77	1.797
487.97	1.807
488.17	1.793
488.37	1.793
488.57	1.792
488.77	1.800
488.97	1.787
489.18	1.776
489.38	1.801
489.58	1.800
489.78	1.804
489.98	1.795
490.18	1.792
490.38	1.795
490.58	1.781
490.78	1.792
490.98	1.797
491.19	1.799
491.39	1.795
491.59	1.781
491.79	1.816
491.99	1.811
492.19	1.815
492.39	1.850
492.59	1.851
492.79	1.877
492.99	1.883
493.20	1.889
493.40	1.886
493.60	1.906
493.80	1.893
494.00	1.857
494.20	1.863
494.40	1.857
494.60	1.828
494.80	1.884
495.00	1.865
495.20	1.849
495.40	1.838
495.61	1.859
495.81	1.853
496.01	1.902
496.21	1.928
496.41	1.921
496.61	1.924
496.81	1.909
497.01	1.845
497.21	1.838
497.41	1.844
497.61	1.843
497.81	1.819
498.01	1.820
498.21	1.786
498.41	1.760
498.61	1.759
498.82	1.771
499.02	1.786
499.22	1.786
499.42	1.784
499.62	1.793
499.82	1.802
500.02	1.814
500.22	1.798
500.42	1.826
500.62	1.833
500.82	1.837
501.02	1.819
501.22	1.823
501.42	1.827
501.62	1.852
501.82	1.845
502.02	1.846
502.22	1.836
502.42	1.870
502.62	1.833
502.82	1.832
503.02	1.846
503.22	1.843
503.42	1.826
503.63	1.824
503.83	1.800
504.03	1.796
504.23	1.786
504.43	1.798
504.63	1.810
504.83	1.811
505.03	1.808
505.23	1.821
505.43	1.846
505.63	1.856
505.83	1.861
506.03	1.872
506.23	1.886
506.43	1.887
506.63	1.876
506.83	1.849
507.03	1.869
507.23	1.872
507.43	1.844
507.63	1.843
507.83	1.840
508.03	1.845
508.23	1.843
508.43	1.828
508.63	1.845
508.83	1.846
509.03	1.867
509.23	1.849
509.43	1.861
509.63	1.863
509.83	1.853
510.03	1.887
510.23	1.889
510.43	1.902
510.63	1.906
510.83	1.898
511.03	1.917
511.23	1.883
511.43	1.884
511.63	1.900
511.83	1.920
512.03	1.919
512.22	1.887
512.42	1.892
512.62	1.907
512.82	1.907
513.02	1.901
513.22	1.892
513.42	1.916
513.62	1.964
513.82	1.937
514.02	1.932
514.22	1.946
514.42	1.947
514.62	1.945
514.82	1.936
515.02	1.970
515.22	2.038
515.42	2.040
515.62	2.077
515.82	2.035
516.02	2.051
516.22	2.060
516.42	2.099
516.62	2.116
516.82	2.139
517.01	2.108
517.21	2.091
517.41	2.168
517.61	2.181
517.81	2.105
518.01	2.098
518.21	2.099
518.41	2.078
518.61	2.051
518.81	2.062
519.01	2.065
519.21	2.081
519.41	2.063
519.61	1.953
519.81	1.983
520.00	1.991
520.20	1.997
520.40	2.045
520.60	2.050
520.80	2.033
521.00	2.054
521.20	2.060
521.40	2.154
521.60	2.153
521.80	2.141
522.00	2.122
522.20	2.150
522.39	2.135
522.59	2.066
522.79	2.102
522.99	2.138
523.19	2.087
523.39	2.072
523.59	2.026
523.79	2.077
523.99	2.111
524.19	2.100
524.38	2.074
524.58	2.104
524.78	2.109
524.98	2.060
525.18	2.101
525.38	2.110
525.58	2.100
525.78	2.060
525.98	2.026
526.18	2.018
526.37	2.009
526.57	2.053
526.77	2.041
526.97	2.051
527.17	2.064
527.37	2.001
527.57	2.055
527.77	2.080
527.96	2.089
528.16	2.069
528.36	2.101
528.56	2.143
528.76	2.092
528.96	2.086
529.16	2.117
529.36	2.160
529.55	2.158
529.75	2.082
529.95	2.073
530.15	2.077
530.35	2.139
530.55	2.077
530.75	2.074
530.94	2.089
531.14	2.099
531.34	2.067
531.54	2.039
531.74	2.083
531.94	2.155
532.13	2.134
532.33	2.189
532.53	2.147
532.73	2.153
532.93	2.110
533.13	2.127
533.33	2.119
533.52	2.118
533.72	2.229
533.92	2.181
534.12	2.130
534.32	2.137
534.52	2.086
534.71	2.116
534.91	2.153
535.11	2.221
535.31	2.166
535.51	2.218
535.71	2.245
535.90	2.131
536.10	2.171
536.30	2.204
536.50	2.218
536.70	2.234
536.89	2.181
537.09	2.184
537.29	2.194
537.49	2.223
537.69	2.160
537.89	2.172
538.08	2.165
538.28	2.112
538.48	2.132
538.68	2.163
538.88	2.195
539.07	2.195
539.27	2.144
539.47	2.125
539.67	2.121
539.87	2.158
540.06	2.118
540.26	2.133
540.46	2.170
540.66	2.106
540.86	2.065
541.05	2.053
541.25	2.081
541.45	2.087
541.65	2.052
541.84	2.080
542.04	2.069
542.24	2.083
542.44	2.060
542.64	2.086
542.83	2.131
543.03	2.138
543.23	2.113
543.43	2.112
543.62	2.136
543.82	2.136
544.02	2.117
544.22	2.119
544.42	2.175
544.61	2.197
544.81	2.142
545.01	2.105
545.21	2.143
545.40	2.130
545.60	2.098
545.80	2.165
546.00	2.160
546.19	2.144
546.39	2.124
546.59	2.081
546.79	2.105
546.98	2.113
547.18	2.111
547.38	2.116
547.58	2.168
547.77	2.173
547.97	2.090
548.17	2.116
548.37	2.123
548.56	2.139
548.76	2.131
548.96	2.140
549.16	2.166
549.35	2.169
549.55	2.130
549.75	2.127
549.95	2.188
550.14	2.199
550.34	2.168
550.54	2.284
550.73	2.371
550.93	2.402
551.13	2.343
551.33	2.297
551.52	2.297
551.72	2.293
551.92	2.248
552.12	2.280
552.31	2.261
552.51	2.263
552.71	2.144
552.90	2.155
553.10	2.157
553.30	2.154
553.50	2.157
553.69	2.183
553.89	2.191
554.09	2.196
554.28	2.114
554.48	2.155
554.68	2.188
554.87	2.196
555.07	2.141
555.27	2.137
555.47	2.165
555.66	2.175
555.86	2.166
556.06	2.232
556.25	2.276
556.45	2.779
556.65	2.740
556.84	3.429
557.04	-0.000
557.24	-0.000
557.43	-0.000
557.63	-0.000
557.83	-0.000
558.02	-0.000
558.22	-0.000
558.42	-0.000
558.61	-0.000
558.81	-0.000
559.01	2.992
559.21	2.814
559.40	2.836
559.60	2.854
559.80	2.511
559.99	2.541
560.19	2.553
560.39	2.287
560.58	2.243
560.78	2.248
560.97	2.357
561.17	2.330
561.37	2.290
561.56	2.340
561.76	2.370
561.96	2.368
562.15	2.317
562.35	2.419
562.55	2.444
562.74	2.473
562.94	2.434
563.14	2.351
563.33	2.371
563.53	2.371
563.73	2.294
563.92	2.330
564.12	2.377
564.31	2.432
564.51	2.361
564.71	2.433
564.90	2.473
565.10	2.481
565.30	2.725
565.49	2.808
565.69	3.002
565.89	3.015
566.08	2.739
566.28	2.983
566.47	3.132
566.67	2.775
566.87	2.587
567.06	2.731
567.26	-0.000
567.46	2.868
567.65	2.718
567.85	2.766
568.04	2.926
568.24	2.758
568.44	2.501
568.63	2.416
568.83	2.468
569.02	2.403
569.22	2.254
569.42	2.136
569.61	2.165
569.81	2.132
570.00	2.104
570.20	2.136
570.40	2.162
570.59	2.174
570.79	2.126
570.98	2.080
571.18	2.091
571.38	2.081
571.57	2.041
571.77	2.005
571.96	2.061
572.16	2.017
572.35	1.940
572.55	1.959
572.75	1.933
572.94	1.936
573.14	1.919
573.33	1.926
573.53	1.924
573.73	1.913
573.92	1.899
574.12	1.875
574.31	1.900
574.51	1.906
574.70	1.859
574.90	1.872
575.09	1.898
575.29	1.900
575.49	1.868
575.68	1.890
575.88	1.904
576.07	1.917
576.27	1.892
576.46	1.869
576.66	1.860
576.86	1.858
577.05	1.842
577.25	1.826
577.44	1.843
577.64	1.843
577.83	1.818
578.03	1.816
578.22	1.801
578.42	1.794
578.61	1.785
578.81	1.792
579.00	1.793
579.20	1.788
579.40	1.778
579.59	1.768
579.79	1.771
579.98	1.766
580.18	1.778
580.37	1.788
580.57	1.814
580.76	1.881
580.96	1.868
581.15	1.880
581.35	1.893
581.54	1.887
581.74	1.873
581.93	1.894
582.13	1.901
582.32	1.865
582.52	1.846
582.71	1.835
582.91	1.782
583.10	1.786
583.30	1.776
583.49	1.775
583.69	1.810
583.88	1.831
584.08	1.818
584.27	1.847
584.47	1.876
584.66	1.882
584.86	1.870
585.05	1.885
585.25	1.908
585.44	1.905
585.64	1.898
585.83	1.869
586.03	1.883
586.22	1.876
586.42	1.842
586.61	1.875
586.81	1.915
587.00	1.917
587.20	1.896
587.39	1.907
587.59	1.931
587.78	1.941
587.98	1.946
588.17	1.950
588.37	1.975
588.56	1.995
588.76	1.928
588.95	1.921
589.15	1.991
589.34	2.045
589.54	2.020
589.73	2.030
589.92	2.059
590.12	2.043
590.31	2.008
590.51	2.117
590.70	2.137
590.90	2.150
591.09	2.102
591.29	2.041
591.48	2.015
591.68	2.030
591.87	2.009
592.06	2.010
592.26	2.064
592.45	2.047
592.65	1.937
592.84	1.943
593.04	1.973
593.23	2.013
593.43	1.988
593.62	1.992
593.81	2.010
594.01	2.015
594.20	1.995
594.40	1.975
594.59	2.000
594.79	2.025
594.98	2.005
595.17	1.985
595.37	1.992
595.56	2.010
595.76	2.003
595.95	2.011
596.14	2.033
596.34	2.037
596.53	2.010
596.73	2.026
596.92	2.018
597.12	2.049
597.31	2.054
597.50	2.027
597.70	2.061
597.89	2.048
598.09	1.997
598.28	2.022
598.47	2.073
598.67	2.057
598.86	2.016
599.06	2.078
599.25	2.079
599.44	2.059
599.64	2.038
599.83	2.020
600.03	2.083
600.22	2.098
600.41	2.115
600.61	2.063
600.80	2.112
601.00	2.126
601.19	2.060
601.38	2.039
601.58	2.065
601.77	2.089
601.96	2.125
602.16	2.107
602.35	2.349
602.55	2.253
602.74	2.266
602.93	2.286
603.13	2.414
603.32	2.424
603.51	2.429
603.71	2.590
603.90	2.565
604.09	2.583
604.29	2.447
604.48	2.221
604.68	2.240
604.87	2.218
605.06	2.162
605.26	2.098
605.45	2.097
605.64	2.089
605.84	2.015
606.03	2.026
606.22	2.002
606.42	2.000
606.61	1.962
606.80	1.968
607.00	2.014
607.19	2.017
607.38	2.023
607.58	2.068
607.77	2.105
607.96	2.112
608.16	2.109
608.35	2.259
608.54	2.381
608.74	2.557
608.93	3.546
609.12	-0.000
609.32	-0.000
609.51	-0.000
609.70	-0.000
609.90	-0.000
610.09	-0.000
610.28	-0.000
610.48	-0.000
610.67	-0.000
610.86	-0.000
611.06	3.251
611.25	2.858
611.44	2.849
611.64	2.884
611.83	4.174
612.02	2.974
612.21	2.808
612.41	2.633
612.60	2.589
612.79	2.414
612.99	2.430
613.18	2.561
613.37	2.460
613.57	2.407
613.76	2.462
613.95	2.344
614.14	2.316
614.34	2.278
614.53	2.307
614.72	2.386
614.92	2.409
615.11	2.303
615.30	2.217
615.49	2.287
615.69	2.378
615.88	2.299
616.07	2.352
616.26	2.473
616.46	2.522
616.65	2.427
616.84	2.415
617.04	2.455
617.23	2.647
617.42	2.718
617.61	2.988
617.81	2.878
618.00	3.303
618.19	2.996
618.38	-0.000
618.58	-0.000
618.77	-0.000
618.96	-0.000
619.15	-0.000
619.35	-0.000
619.54	-0.000
619.73	-0.000
619.92	-0.000
620.12	-0.000
620.31	-0.000
620.50	-0.000
620.69	-0.000
620.89	-0.000
621.08	-0.000
621.27	-0.000
621.46	-0.000
621.66	-0.000
621.85	-0.000
622.04	-0.000
622.23	-0.000
622.43	-0.000
622.62	-0.000
622.81	-0.000
623.00	-0.000
623.19	-0.000
623.39	-0.000
623.58	-0.000
623.77	-0.000
623.96	-0.000
624.16	-0.000
624.35	-0.000
624.54	-0.000
624.73	-0.000
624.92	-0.000
625.12	-0.000
625.31	-0.000
625.50	-0.000
625.69	-0.000
625.88	-0.000
626.08	-0.000
626.27	-0.000
626.46	-0.000
626.65	-0.000
626.84	-0.000
627.04	-0.000
627.23	-0.000
627.42	-0.000
627.61	-0.000
627.80	-0.000
628.00	-0.000
628.19	-0.000
628.38	-0.000
628.57	-0.000
628.76	-0.000
628.96	-0.000
629.15	-0.000
629.34	-0.000
629.53	-0.000
629.72	-0.000
629.91	-0.000
630.11	-0.000
630.30	-0.000
630.49	-0.000
630.68	-0.000
630.87	-0.000
631.06	-0.000
631.26	-0.000
631.45	-0.000
631.64	-0.000
631.83	-0.000
632.02	-0.000
632.21	-0.000
632.41	-0.000
632.60	-0.000
632.79	-0.000
632.98	-0.000
633.17	-0.000
633.36	-0.000
633.55	-0.000
633.75	-0.000
633.94	-0.000
634.13	-0.000
634.32	-0.000
634.51	-0.000
634.70	-0.000
634.89	-0.000
635.09	-0.000
635.28	-0.000
635.47	-0.000
635.66	-0.000
635.85	-0.000
636.04	-0.000
636.23	-0.000
636.43	-0.000
636.62	-0.000
636.81	-0.000
637.00	-0.000
637.19	-0.000
637.38	-0.000
637.57	-0.000
637.76	-0.000
637.95	-0.000
638.15	-0.000
638.34	-0.000
638.53	-0.000
638.72	-0.000
638.91	-0.000
639.10	-0.000
639.29	-0.000
639.48	-0.000
639.67	-0.000
639.87	-0.000
640.06	-0.000
640.25	-0.000
640.44	-0.000
640.63	-0.000
640.82	-0.000
641.01	-0.000
641.20	-0.000
641.39	-0.000
641.58	-0.000
641.78	-0.000
641.97	-0.000
642.16	-0.000
642.35	-0.000
642.54	-0.000
642.73	-0.000
642.92	-0.000
643.11	-0.000
643.30	-0.000
643.49	-0.000
643.68	-0.000
643.87	-0.000
644.06	-0.000
644.25	-0.000
644.45	-0.000
644.64	-0.000
644.83	-0.000
645.02	-0.000
645.21	-0.000
645.40	-0.000
645.59	-0.000
645.78	-0.000
645.97	-0.000
646.16	-0.000
646.35	-0.000
646.54	-0.000
646.73	-0.000
646.92	-0.000
647.11	-0.000
647.30	-0.000
647.49	-0.000
647.68	-0.000
647.88	-0.000
648.07	-0.000
648.26	-0.000
648.45	-0.000
648.64	-0.000
648.83	-0.000
649.02	-0.000
649.21	-0.000
649.40	-0.000
649.59	-0.000
649.78	-0.000
649.97	-0.000
650.16	-0.000
650.35	-0.000
650.54	-0.000
650.73	-0.000
650.92	-0.000
651.11	-0.000
651.30	-0.000
651.49	-0.000
651.68	-0.000
651.87	-0.000
652.06	-0.000
652.25	-0.000
652.44	-0.000
652.63	-0.000
652.82	-0.000
653.01	-0.000
653.20	-0.000
653.39	-0.000
653.58	-0.000
653.77	-0.000
653.96	2.948
654.15	2.429
654.34	2.374
654.53	2.305
654.72	2.199
654.91	2.039
655.10	1.997
655.29	1.974
655.48	1.942
655.67	1.885
655.86	1.862
656.05	1.851
656.24	1.853
656.43	1.808
656.62	1.816
656.81	1.850
657.00	1.850
657.19	1.849
657.38	1.871
657.57	1.902
657.76	1.968
657.95	1.972
658.14	2.071
658.33	2.182
658.51	2.409
658.70	2.416
658.89	2.401
659.08	2.957
659.27	-0.000
659.46	-0.000
659.65	-0.000
659.84	-0.000
660.03	-0.000
660.22	-0.000
660.41	-0.000
660.60	-0.000
660.79	-0.000
660.98	-0.000
661.17	-0.000
661.36	-0.000
661.55	-0.000
661.74	-0.000
661.92	-0.000
662.11	-0.000
662.30	-0.000
662.49	-0.000
662.68	-0.000
662.87	-0.000
663.06	-0.000
663.25	-0.000
663.44	-0.000
663.63	-0.000
663.82	-0.000
664.01	-0.000
664.20	-0.000
664.38	-0.000
664.57	-0.000
664.76	-0.000
664.95	-0.000
665.14	-0.000
665.33	-0.000
665.52	-0.000
665.71	-0.000
665.90	-0.000
666.09	-0.000
666.28	-0.000
666.46	-0.000
666.65	-0.000
666.84	-0.000
667.03	-0.000
667.22	-0.000
667.41	-0.000
667.60	-0.000
667.79	-0.000
667.98	-0.000
668.16	-0.000
668.35	-0.000
668.54	-0.000
668.73	-0.000
668.92	-0.000
669.11	-0.000
669.30	-0.000
669.49	3.106
669.67	-0.000
669.86	-0.000
670.05	-0.000
670.24	3.229
670.43	3.039
670.62	2.991
670.81	2.621
671.00	2.586
671.18	2.542
671.37	2.521
671.56	2.469
671.75	2.376
671.94	2.261
672.13	2.241
672.32	2.152
672.50	2.139
672.69	2.140
672.88	2.155
673.07	2.081
673.26	2.153
673.45	2.189
673.63	2.178
673.82	2.142
674.01	2.188
674.20	2.164
674.39	2.143
674.58	2.146
674.76	2.171
674.95	2.161
675.14	2.183
675.33	2.088
675.52	2.067
675.71	2.074
675.89	2.058
676.08	2.005
676.27	2.006
676.46	2.035
676.65	2.021
676.84	2.020
677.02	2.043
677.21	2.063
677.40	2.056
677.59	2.029
677.78	2.040
677.96	2.099
678.15	2.089
678.34	2.089
678.53	2.103
678.72	2.103
678.90	2.060
679.09	2.017
679.28	1.988
679.47	1.987
679.66	1.978
679.84	1.952
680.03	1.907
680.22	1.903
680.41	1.931
680.60	1.891
680.78	1.893
680.97	1.919
681.16	1.919
681.35	1.896
681.53	1.892
681.72	1.906
681.91	1.938
682.10	1.925
682.29	1.959
682.47	1.921
682.66	1.888
682.85	1.871
683.04	1.859
683.22	1.856
683.41	1.891
683.60	1.884
683.79	1.904
683.97	1.878
684.16	1.873
684.35	1.834
684.54	1.851
684.72	1.881
684.91	1.898
685.10	1.862
685.29	1.886
685.47	1.851
685.66	1.855
685.85	1.815
686.04	1.816
686.22	1.843
686.41	1.889
686.60	1.852
686.79	1.909
686.97	1.919
687.16	1.956
687.35	1.916
687.54	1.982
687.72	2.034
687.91	2.040
688.10	2.103
688.29	2.106
688.47	2.043
688.66	2.060
688.85	1.983
689.03	1.960
689.22	2.077
689.41	2.100
689.60	2.007
689.78	1.978
689.97	1.992
690.16	1.954
690.34	1.908
690.53	1.926
690.72	1.925
690.91	1.908
691.09	1.890
691.28	1.802
691.47	1.791
691.65	1.793
691.84	1.766
692.03	1.763
692.21	1.740
692.40	1.742
692.59	1.717
692.77	1.719
692.96	1.730
693.15	1.739
693.34	1.722
693.52	1.719
693.71	1.717
693.90	1.726
694.08	1.741
694.27	1.758
694.46	1.914
694.64	1.923
694.83	1.912
695.02	1.909
695.20	1.904
695.39	1.898
695.58	1.906
695.76	1.921
695.95	1.898
696.14	1.882
696.32	1.847
696.51	1.709
696.70	1.712
696.88	1.728
697.07	1.712
697.26	1.721
697.44	1.734
697.63	1.715
697.81	1.700
698.00	1.718
698.19	1.711
698.37	1.721
698.56	1.720
698.75	1.723
698.93	1.707
699.12	1.711
699.31	1.710
699.49	1.708
699.68	1.723
699.87	1.755
700.05	1.749
700.24	1.744
700.42	1.753
700.61	1.751
700.80	1.733
700.98	1.750
701.17	1.759
701.36	1.753
701.54	1.747
701.73	1.765
701.91	1.743
702.10	1.739
702.29	1.733
702.47	1.727
702.66	1.753
702.84	1.779
703.03	1.762
703.22	1.796
703.40	1.798
703.59	1.832
703.77	1.842
703.96	1.838
704.15	1.854
704.33	1.853
704.52	1.855
704.70	1.839
704.89	1.822
705.08	1.814
705.26	1.767
705.45	1.764
705.63	1.749
705.82	1.717
706.00	1.702
706.19	1.701
706.38	1.698
706.56	1.688
706.75	1.675
706.93	1.672
707.12	1.680
707.30	1.677
707.49	1.661
707.68	1.648
707.86	1.642
708.05	1.650
708.23	1.629
708.42	1.635
708.60	1.673
708.79	1.671
708.98	1.665
709.16	1.663
709.35	1.687
709.53	1.750
709.72	1.745
709.90	1.762
710.09	1.780
710.27	1.801
710.46	1.872
710.64	1.829
710.83	1.842
711.02	1.862
711.20	1.854
711.39	1.835
711.57	1.775
711.76	1.779
711.94	1.770
712.13	1.794
712.31	1.790
712.50	1.731
712.68	1.721
712.87	1.738
713.05	1.737
713.24	1.737
713.42	1.731
713.61	1.744
713.79	1.768
713.98	1.764
714.16	1.773
714.35	1.772
714.54	1.787
714.72	1.786
714.91	1.771
715.09	1.893
715.28	1.941
715.46	1.954
715.65	1.926
715.83	1.919
716.02	1.982
716.20	1.928
716.39	1.937
716.57	1.965
716.76	2.007
716.94	2.024
717.12	1.860
717.31	1.897
717.49	1.955
717.68	2.004
717.86	1.995
718.05	2.018
718.23	2.057
718.42	2.101
718.60	2.162
718.79	2.762
718.97	2.957
719.16	3.067
719.34	2.789
719.53	2.681
719.71	2.682
719.90	2.845
720.08	2.677
720.27	2.740
720.45	2.727
720.63	2.479
720.82	2.145
721.00	2.243
721.19	2.326
721.37	2.265
721.56	2.304
721.74	2.430
721.93	-0.000
722.11	-0.000
722.30	-0.000
722.48	-0.000
722.66	-0.000
722.85	-0.000
723.03	-0.000
723.22	-0.000
723.40	-0.000
723.59	-0.000
723.77	-0.000
723.95	-0.000
724.14	-0.000
724.32	-0.000
724.51	-0.000
724.69	-0.000
724.88	-0.000
725.06	-0.000
725.24	-0.000
725.43	-0.000
725.61	-0.000
725.80	-0.000
725.98	-0.000
726.16	-0.000
726.35	-0.000
726.53	-0.000
726.72	-0.000
726.90	-0.000
727.09	-0.000
727.27	-0.000
727.45	-0.000
727.64	-0.000
727.82	-0.000
728.01	-0.000
728.19	-0.000
728.37	-0.000
728.56	-0.000
728.74	-0.000
728.92	-0.000
729.11	-0.000
729.29	-0.000
729.48	-0.000
729.66	-0.000
729.84	-0.000
730.03	-0.000
730.21	-0.000
730.40	-0.000
730.58	-0.000
730.76	-0.000
730.95	-0.000
731.13	-0.000
731.31	-0.000
731.50	-0.000
731.68	-0.000
731.86	-0.000
732.05	-0.000
732.23	-0.000
732.42	-0.000
732.60	-0.000
732.78	-0.000
732.97	-0.000
733.15	-0.000
733.33	-0.000
733.52	-0.000
733.70	-0.000
733.88	-0.000
734.07	-0.000
734.25	-0.000
734.43	-0.000
734.62	-0.000
734.80	-0.000
734.98	-0.000
735.17	-0.000
735.35	-0.000
735.53	-0.000
735.72	-0.000
735.90	-0.000
736.08	-0.000
736.27	-0.000
736.45	-0.000
736.63	-0.000
736.82	-0.000
737.00	-0.000
737.18	-0.000
737.37	-0.000
737.55	-0.000
737.73	-0.000
737.92	-0.000
738.10	-0.000
738.28	-0.000
738.46	-0.000
738.65	-0.000
738.83	-0.000
739.01	-0.000
739.20	-0.000
739.38	-0.000
739.56	-0.000
739.75	-0.000
739.93	-0.000
740.11	-0.000
740.29	-0.000
740.48	-0.000
740.66	-0.000
740.84	-0.000
741.03	-0.000
741.21	-0.000
741.39	-0.000
741.57	-0.000
741.76	-0.000
741.94	-0.000
742.12	-0.000
742.31	-0.000
742.49	-0.000
742.67	-0.000
742.85	-0.000
743.04	-0.000
743.22	-0.000
743.40	-0.000
743.58	-0.000
743.77	-0.000
743.95	-0.000
744.13	-0.000
744.31	-0.000
744.50	-0.000
744.68	-0.000
744.86	-0.000
745.04	-0.000
745.23	-0.000
745.41	-0.000
745.59	-0.000
745.77	-0.000
745.96	-0.000
746.14	-0.000
746.32	-0.000
746.50	-0.000
746.69	-0.000
746.87	-0.000
747.05	-0.000
747.23	-0.000
747.42	-0.000
747.60	-0.000
747.78	-0.000
747.96	-0.000
748.14	-0.000
748.33	-0.000
748.51	-0.000
748.69	-0.000
748.87	-0.000
749.06	-0.000
749.24	-0.000
749.42	-0.000
749.60	-0.000
749.78	-0.000
749.97	-0.000
750.15	-0.000
750.33	-0.000
750.51	-0.000
750.69	-0.000
750.88	-0.000
751.06	-0.000
751.24	-0.000
751.42	-0.000
751.60	-0.000
751.79	-0.000
751.97	-0.000
752.15	-0.000
752.33	-0.000
752.51	-0.000
752.69	-0.000
752.88	-0.000
753.06	-0.000
753.24	-0.000
753.42	-0.000
753.60	-0.000
753.78	-0.000
753.97	-0.000
754.15	-0.000
754.33	-0.000
754.51	-0.000
754.69	-0.000
754.87	-0.000
755.06	-0.000
755.24	-0.000
755.42	-0.000
755.60	-0.000
755.78	-0.000
755.96	-0.000
756.15	-0.000
756.33	-0.000
756.51	-0.000
756.69	-0.000
756.87	-0.000
757.05	-0.000
757.23	-0.000
757.42	-0.000
757.60	-0.000
757.78	-0.000
757.96	-0.000
758.14	-0.000
758.32	-0.000
758.50	-0.000
758.69	-0.000
758.87	-0.000
759.05	-0.000
759.23	-0.000
759.41	-0.000
759.59	-0.000
759.77	-0.000
759.95	-0.000
760.13	-0.000
760.32	-0.000
760.50	-0.000
760.68	-0.000
760.86	-0.000
761.04	-0.000
761.22	-0.000
761.40	-0.000
761.58	-0.000
761.76	-0.000
761.95	-0.000
762.13	-0.000
762.31	-0.000
762.49	-0.000
762.67	-0.000
762.85	-0.000
763.03	-0.000
763.21	-0.000
763.39	-0.000
763.57	-0.000
763.75	-0.000
763.94	-0.000
764.12	-0.000
764.30	-0.000
764.48	-0.000
764.66	-0.000
764.84	-0.000
765.02	-0.000
765.20	-0.000
765.38	-0.000
765.56	-0.000
765.74	-0.000
765.92	-0.000
766.10	-0.000
766.28	-0.000
766.46	-0.000
766.65	-0.000
766.83	-0.000
767.01	-0.000
767.19	-0.000
767.37	-0.000
767.55	-0.000
767.73	-0.000
767.91	-0.000
768.09	-0.000
768.27	-0.000
768.45	-0.000
768.63	-0.000
768.81	-0.000
768.99	-0.000
769.17	-0.000
769.35	-0.000
769.53	-0.000
769.71	-0.000
769.89	-0.000
770.07	-0.000
770.25	-0.000
770.43	-0.000
770.61	-0.000
770.79	-0.000
770.97	-0.000
771.15	-0.000
771.33	-0.000
771.51	-0.000
771.69	-0.000
771.87	-0.000
772.05	-0.000
772.24	-0.000
772.42	-0.000
772.60	-0.000
772.78	-0.000
772.96	-0.000
773.14	-0.000
773.32	-0.000
773.49	-0.000
773.67	-0.000
773.85	-0.000
774.03	-0.000
774.21	-0.000
774.39	-0.000
774.57	-0.000
774.75	-0.000
774.93	-0.000
775.11	-0.000
775.29	-0.000
775.47	-0.000
775.65	-0.000
775.83	-0.000
776.01	-0.000
776.19	-0.000
776.37	-0.000
776.55	-0.000
776.73	-0.000
776.91	-0.000
777.09	-0.000
777.27	-0.000
777.45	-0.000
777.63	-0.000
777.81	-0.000
777.99	-0.000
778.17	-0.000
778.35	-0.000
778.53	-0.000
778.71	-0.000
778.89	-0.000
779.07	-0.000
779.24	-0.000
779.42	-0.000
779.60	-0.000
779.78	-0.000
779.96	-0.000
780.14	-0.000
780.32	-0.000
780.50	-0.000
780.68	-0.000
780.86	-0.000
781.04	-0.000
781.22	-0.000
781.40	-0.000
781.58	-0.000
781.75	-0.000
781.93	-0.000
782.11	-0.000
782.29	-0.000
782.47	-0.000
782.65	-0.000
782.83	-0.000
783.01	-0.000
783.19	-0.000
783.37	-0.000
783.55	-0.000
783.72	-0.000
783.90	-0.000
784.08	-0.000
784.26	-0.000
784.44	-0.000
784.62	-0.000
784.80	-0.000
784.98	-0.000
785.16	-0.000
785.33	-0.000
785.51	-0.000
785.69	-0.000
785.87	-0.000
786.05	-0.000
786.23	-0.000
786.41	-0.000
786.59	-0.000
786.77	-0.000
786.94	-0.000
787.12	-0.000
787.30	-0.000
787.48	-0.000
787.66	-0.000
787.84	-0.000
788.02	-0.000
788.19	-0.000
788.37	-0.000
788.55	-0.000
788.73	-0.000
788.91	-0.000
789.09	-0.000
789.27	-0.000
789.44	-0.000
789.62	-0.000
789.80	-0.000
789.98	-0.000
790.16	-0.000
790.34	-0.000
790.51	-0.000
790.69	-0.000
790.87	-0.000
791.05	-0.000
791.23	-0.000
791.41	-0.000
791.58	-0.000
791.76	-0.000
791.94	-0.000
792.12	-0.000
792.30	-0.000
792.48	-0.000
792.65	-0.000
792.83	-0.000
793.01	-0.000
793.19	-0.000
793.37	-0.000
793.54	-0.000
793.72	-0.000
793.90	-0.000
794.08	-0.000
794.26	-0.000
794.43	-0.000
794.61	-0.000
794.79	-0.000
794.97	-0.000
795.15	-0.000
795.32	-0.000
795.50	-0.000
795.68	-0.000
795.86	-0.000
796.04	-0.000
796.21	-0.000
796.39	-0.000
796.57	-0.000
796.75	-0.000
796.92	-0.000
797.10	-0.000
797.28	-0.000
797.46	-0.000
797.64	-0.000
797.81	-0.000
797.99	-0.000
798.17	-0.000
798.35	-0.000
798.52	-0.000
798.70	-0.000
798.88	-0.000
799.06	-0.000
799.23	-0.000
799.41	-0.000
799.59	-0.000
799.77	-0.000
799.94	-0.000
800.12	-0.000
800.30	-0.000
800.48	-0.000
800.65	-0.000
800.83	-0.000
801.01	-0.000
801.19	-0.000
801.36	-0.000
801.54	-0.000
801.72	-0.000
801.90	-0.000
802.07	-0.000
802.25	-0.000
802.43	-0.000
802.60	-0.000
802.78	-0.000
802.96	-0.000
803.14	-0.000
803.31	-0.000
803.49	-0.000
803.67	-0.000
803.84	-0.000
804.02	-0.000
804.20	-0.000
804.38	-0.000
804.55	-0.000
804.73	-0.000
804.91	-0.000
805.08	-0.000
805.26	-0.000
805.44	-0.000
805.61	-0.000
805.79	-0.000
805.97	-0.000
806.15	-0.000
806.32	-0.000
806.50	-0.000
806.68	-0.000
806.85	-0.000
807.03	-0.000
807.21	-0.000
807.38	-0.000
807.56	-0.000
807.74	-0.000
807.91	-0.000
808.09	-0.000
808.27	-0.000
808.44	-0.000
808.62	-0.000
808.80	-0.000
808.97	-0.000
809.15	-0.000
809.33	-0.000
809.50	-0.000
809.68	-0.000
809.86	-0.000
810.03	-0.000
810.21	-0.000
810.39	-0.000
810.56	-0.000
810.74	-0.000
810.91	-0.000
811.09	-0.000
811.27	-0.000
811.44	-0.000
811.62	-0.000
811.80	-0.000
811.97	-0.000
812.15	-0.000
812.33	-0.000
812.50	-0.000
812.68	-0.000
812.85	-0.000
813.03	-0.000
813.21	-0.000
813.38	-0.000
813.56	-0.000
813.74	-0.000
813.91	-0.000
814.09	-0.000
814.26	-0.000
814.44	-0.000
814.62	-0.000
814.79	-0.000
814.97	-0.000
815.14	-0.000
815.32	-0.000
815.50	-0.000
815.67	-0.000
815.85	-0.000
816.02	-0.000
816.20	-0.000
816.38	-0.000
816.55	-0.000
816.73	-0.000
816.90	-0.000
817.08	-0.000
817.26	-0.000
817.43	-0.000
817.61	-0.000
817.78	-0.000
817.96	-0.000
818.13	-0.000
818.31	-0.000
818.49	-0.000
818.66	-0.000
818.84	-0.000
819.01	-0.000
819.19	-0.000
819.36	-0.000
819.54	-0.000
819.71	-0.000
819.89	-0.000
820.07	-0.000
820.24	-0.000
820.42	-0.000
820.59	-0.000
820.77	-0.000
820.94	-0.000
821.12	-0.000
821.29	-0.000
821.47	-0.000
821.64	-0.000
821.82	-0.000
822.00	-0.000
822.17	-0.000
822.35	-0.000
822.52	-0.000
822.70	-0.000
822.87	-0.000
823.05	-0.000
823.22	-0.000
823.40	-0.000
823.57	-0.000
823.75	-0.000
823.92	-0.000
824.10	-0.000
824.27	-0.000
824.45	-0.000
824.62	-0.000
824.80	-0.000
824.97	-0.000
825.15	-0.000
825.32	-0.000
825.50	-0.000
825.67	-0.000
825.85	-0.000
826.02	-0.000
826.20	-0.000
826.37	-0.000
826.55	-0.000
826.72	-0.000
826.90	-0.000
827.07	-0.000
827.25	-0.000
827.42	-0.000
827.60	-0.000
827.77	-0.000
827.95	-0.000
828.12	-0.000
828.30	-0.000
828.47	-0.000
828.65	-0.000
828.82	-0.000
829.00	-0.000
829.17	-0.000
829.34	-0.000
829.52	-0.000
829.69	-0.000
829.87	-0.000
830.04	-0.000
830.22	-0.000
830.39	-0.000
830.57	-0.000
830.74	-0.000
830.92	-0.000
831.09	-0.000
831.26	-0.000
831.44	-0.000
831.61	-0.000
831.79	-0.000
831.96	-0.000
832.14	-0.000
832.31	-0.000
832.49	-0.000
832.66	-0.000
832.83	-0.000
833.01	-0.000
833.18	-0.000
833.36	-0.000
833.53	-0.000
833.70	-0.000
833.88	-0.000
834.05	-0.000
834.23	-0.000
834.40	-0.000
834.58	-0.000
834.75	-0.000
834.92	-0.000
835.10	-0.000
835.27	-0.000
835.45	-0.000
835.62	-0.000
835.79	-0.000
835.97	-0.000
836.14	-0.000
836.32	-0.000
836.49	-0.000
836.66	-0.000
836.84	-0.000
837.01	-0.000
837.18	-0.000
837.36	-0.000
837.53	-0.000
837.71	-0.000
837.88	-0.000
838.05	-0.000
838.23	-0.000
838.40	-0.000
838.58	-0.000
838.75	-0.000
838.92	-0.000
839.10	-0.000
839.27	-0.000
839.44	-0.000
839.62	-0.000
839.79	-0.000
839.96	-0.000
840.14	-0.000
840.31	-0.000
840.48	-0.000
840.66	-0.000
840.83	-0.000
841.01	-0.000
841.18	-0.000
841.35	-0.000
841.53	-0.000
841.70	-0.000
841.87	-0.000
842.05	-0.000
842.22	-0.000
842.39	-0.000
842.57	-0.000
842.74	-0.000
842.91	-0.000
843.09	-0.000
843.26	-0.000
843.43	-0.000
843.60	-0.000
843.78	-0.000
843.95	-0.000
844.12	-0.000
844.30	-0.000
844.47	-0.000
844.64	-0.000
844.82	-0.000
844.99	-0.000
845.16	-0.000
845.34	-0.000
845.51	-0.000
845.68	-0.000
845.85	-0.000
846.03	-0.000
846.20	-0.000
846.37	-0.000
846.55	-0.000
846.72	-0.000
846.89	-0.000
847.06	-0.000
847.24	-0.000
847.41	-0.000
847.58	-0.000
847.76	-0.000
847.93	-0.000
848.10	-0.000
848.27	-0.000
848.45	-0.000
848.62	-0.000
848.79	-0.000
848.97	-0.000
849.14	-0.000
849.31	-0.000
849.48	-0.000
849.66	-0.000
849.83	-0.000
850.00	-0.000
850.17	-0.000
850.35	-0.000
850.52	-0.000
850.69	-0.000
850.86	-0.000
851.04	-0.000
851.21	-0.000
851.38	-0.000
851.55	-0.000
851.72	-0.000
851.90	-0.000
852.07	-0.000
852.24	-0.000
852.41	-0.000
852.59	-0.000
852.76	-0.000
852.93	-0.000
853.10	-0.000
853.28	-0.000
853.45	-0.000
853.62	-0.000
853.79	-0.000
853.96	-0.000
854.14	-0.000
854.31	-0.000
854.48	-0.000
854.65	-0.000
854.82	-0.000
855.00	-0.000
855.17	-0.000
855.34	-0.000
855.51	-0.000
855.68	-0.000
855.86	-0.000
856.03	-0.000
856.20	-0.000
856.37	-0.000
856.54	-0.000
856.72	-0.000
856.89	-0.000
857.06	-0.000
857.23	-0.000
857.40	-0.000
857.57	-0.000
857.75	-0.000
857.92	-0.000
858.09	-0.000
858.26	-0.000
858.43	-0.000
858.60	-0.000
858.78	-0.000
858.95	-0.000
859.12	-0.000
859.29	-0.000
859.46	-0.000
859.63	-0.000
859.81	-0.000
859.98	-0.000
860.15	-0.000
860.32	-0.000
860.49	-0.000
860.66	-0.000
860.83	-0.000
861.01	-0.000
861.18	-0.000
861.35	-0.000
861.52	-0.000
861.69	-0.000
861.86	-0.000
862.03	-0.000
862.21	-0.000
862.38	-0.000
862.55	-0.000
862.72	-0.000
862.89	-0.000
863.06	-0.000
863.23	-0.000
863.40	-0.000
863.58	-0.000
863.75	-0.000
863.92	-0.000
864.09	-0.000
864.26	-0.000
864.43	-0.000
864.60	-0.000
864.77	-0.000
864.94	-0.000
865.11	-0.000
865.29	-0.000
865.46	-0.000
865.63	-0.000
865.80	-0.000
865.97	-0.000
866.14	-0.000
866.31	-0.000
866.48	-0.000
866.65	-0.000
866.82	-0.000
866.99	-0.000
867.16	-0.000
867.34	-0.000
867.51	-0.000
867.68	-0.000
867.85	-0.000
868.02	-0.000
868.19	-0.000
868.36	-0.000
868.53	-0.000
868.70	-0.000
868.87	-0.000
869.04	-0.000
869.21	-0.000
869.38	-0.000
869.55	-0.000
869.72	-0.000
869.89	-0.000
870.06	-0.000
870.24	-0.000
870.41	-0.000
870.58	-0.000
870.75	-0.000
870.92	-0.000
871.09	-0.000
871.26	-0.000
871.43	-0.000
871.60	-0.000
871.77	-0.000
871.94	-0.000
872.11	-0.000
872.28	-0.000
872.45	-0.000
872.62	-0.000
872.79	-0.000
872.96	-0.000
873.13	-0.000
873.30	-0.000
873.47	-0.000
873.64	-0.000
873.81	-0.000
873.98	-0.000
874.15	-0.000
874.32	-0.000
874.49	-0.000
874.66	-0.000
874.83	-0.000
875.00	-0.000
875.17	-0.000
875.34	-0.000
875.51	-0.000
875.68	-0.000
875.85	-0.000
876.02	-0.000
876.19	-0.000
876.36	-0.000
876.53	-0.000
876.70	-0.000
876.87	-0.000
877.04	-0.000
877.21	-0.000
877.38	-0.000
877.55	-0.000
877.72	-0.000
877.89	-0.000
878.06	-0.000
878.23	-0.000
878.39	-0.000
878.56	-0.000
878.73	-0.000
878.90	-0.000
879.07	-0.000
879.24	-0.000
879.41	-0.000
879.58	-0.000
879.75	-0.000
879.92	-0.000
880.09	-0.000
880.26	-0.000
880.43	-0.000
880.60	-0.000
880.77	-0.000
880.94	-0.000
881.11	-0.000
881.27	-0.000
881.44	-0.000
881.61	-0.000
881.78	-0.000
881.95	-0.000
882.12	-0.000
882.29	-0.000
882.46	-0.000
882.63	-0.000
882.80	-0.000
882.97	-0.000
883.14	-0.000
883.30	-0.000
883.47	-0.000
883.64	-0.000
883.81	-0.000
883.98	-0.000
884.15	-0.000
884.32	-0.000
884.49	-0.000
884.66	-0.000
884.82	-0.000
884.99	-0.000
885.16	-0.000
885.33	-0.000
885.50	-0.000
885.67	-0.000
885.84	-0.000
886.01	-0.000
886.17	-0.000
886.34	-0.000
886.51	-0.000
886.68	-0.000
886.85	-0.000
887.02	-0.000
887.19	-0.000
887.36	-0.000
887.52	-0.000
887.69	-0.000
887.86	-0.000
888.03	-0.000
888.20	-0.000
888.37	-0.000
888.54	-0.000
888.70	-0.000
888.87	-0.000
889.04	-0.000
889.21	-0.000
889.38	-0.000
889.55	-0.000
889.71	-0.000
889.88	-0.000
890.05	-0.000
890.22	-0.000
890.39	-0.000
>>>>>End Processed Spectral Data<<<<<
