SpectraSuite Data File
++++++++++++++++++++++++++++++++++++
Date: Fri Jun 19 16:48:15 CEST 2015
User: introlabs
Dark Spectrum Present: Yes
Reference Spectrum Present: Yes
Number of Sampled Component Spectra: 1
Spectrometers: USB4H08886
Integration Time (usec): 745692 (USB4H08886)
Spectra Averaged: 5 (USB4H08886)
Boxcar Smoothing: 5 (USB4H08886)
Correct for Electrical Dark: Yes (USB4H08886)
Strobe/Lamp Enabled: No (USB4H08886)
Correct for Detector Non-linearity: Yes (USB4H08886)
Correct for Stray Light: Yes (USB4H08886)
Number of Pixels in Processed Spectrum: 3648
>>>>>Begin Processed Spectral Data<<<<<
178.14	-0.000
178.36	-0.000
178.57	-0.000
178.79	-0.000
179.01	-0.000
179.22	-0.000
179.44	-0.000
179.65	-0.000
179.87	-0.000
180.08	-0.000
180.30	-0.000
180.52	-0.000
180.73	-0.000
180.95	-0.000
181.16	-0.000
181.38	-0.000
181.59	-0.000
181.81	-0.000
182.03	-0.000
182.24	-0.000
182.46	-0.000
182.67	-0.000
182.89	-0.000
183.10	-0.000
183.32	-0.000
183.54	-0.000
183.75	-0.000
183.97	-0.000
184.18	-0.000
184.40	-0.000
184.61	-0.000
184.83	-0.000
185.04	-0.000
185.26	-0.000
185.48	-0.000
185.69	-0.000
185.91	-0.000
186.12	-0.000
186.34	-0.000
186.55	-0.000
186.77	-0.000
186.98	-0.000
187.20	-0.000
187.42	-0.000
187.63	-0.000
187.85	-0.000
188.06	-0.000
188.28	-0.000
188.49	-0.000
188.71	-0.000
188.92	-0.000
189.14	-0.000
189.36	-0.000
189.57	-0.000
189.79	-0.000
190.00	-0.000
190.22	-0.000
190.43	-0.000
190.65	-0.000
190.86	-0.000
191.08	-0.000
191.29	-0.000
191.51	-0.000
191.72	-0.000
191.94	-0.000
192.16	-0.000
192.37	-0.000
192.59	-0.000
192.80	-0.000
193.02	-0.000
193.23	-0.000
193.45	-0.000
193.66	-0.000
193.88	-0.000
194.09	-0.000
194.31	-0.000
194.52	-0.000
194.74	-0.000
194.95	-0.000
195.17	-0.000
195.38	-0.000
195.60	-0.000
195.81	-0.000
196.03	-0.000
196.25	-0.000
196.46	-0.000
196.68	-0.000
196.89	-0.000
197.11	-0.000
197.32	-0.000
197.54	-0.000
197.75	-0.000
197.97	-0.000
198.18	-0.000
198.40	-0.000
198.61	-0.000
198.83	-0.000
199.04	-0.000
199.26	-0.000
199.47	-0.000
199.69	-0.000
199.90	-0.000
200.12	-0.000
200.33	-0.000
200.55	-0.000
200.76	-0.000
200.98	-0.000
201.19	-0.000
201.41	-0.000
201.62	-0.000
201.84	-0.000
202.05	-0.000
202.27	-0.000
202.48	-0.000
202.70	-0.000
202.91	-0.000
203.13	-0.000
203.34	-0.000
203.56	-0.000
203.77	-0.000
203.99	-0.000
204.20	-0.000
204.42	-0.000
204.63	-0.000
204.85	-0.000
205.06	-0.000
205.28	-0.000
205.49	-0.000
205.71	-0.000
205.92	-0.000
206.14	-0.000
206.35	-0.000
206.56	-0.000
206.78	-0.000
206.99	-0.000
207.21	-0.000
207.42	-0.000
207.64	-0.000
207.85	-0.000
208.07	-0.000
208.28	-0.000
208.50	-0.000
208.71	-0.000
208.93	-0.000
209.14	-0.000
209.36	-0.000
209.57	-0.000
209.79	-0.000
210.00	-0.000
210.22	-0.000
210.43	-0.000
210.64	-0.000
210.86	-0.000
211.07	-0.000
211.29	-0.000
211.50	-0.000
211.72	-0.000
211.93	-0.000
212.15	-0.000
212.36	-0.000
212.58	-0.000
212.79	-0.000
213.01	-0.000
213.22	-0.000
213.43	-0.000
213.65	-0.000
213.86	-0.000
214.08	-0.000
214.29	-0.000
214.51	-0.000
214.72	-0.000
214.94	-0.000
215.15	-0.000
215.36	-0.000
215.58	-0.000
215.79	-0.000
216.01	-0.000
216.22	-0.000
216.44	-0.000
216.65	-0.000
216.87	-0.000
217.08	-0.000
217.29	-0.000
217.51	-0.000
217.72	-0.000
217.94	-0.000
218.15	-0.000
218.37	-0.000
218.58	-0.000
218.80	-0.000
219.01	-0.000
219.22	-0.000
219.44	-0.000
219.65	-0.000
219.87	-0.000
220.08	-0.000
220.30	-0.000
220.51	-0.000
220.72	-0.000
220.94	-0.000
221.15	-0.000
221.37	-0.000
221.58	-0.000
221.79	-0.000
222.01	-0.000
222.22	-0.000
222.44	-0.000
222.65	-0.000
222.87	-0.000
223.08	-0.000
223.29	-0.000
223.51	-0.000
223.72	-0.000
223.94	-0.000
224.15	-0.000
224.36	-0.000
224.58	-0.000
224.79	-0.000
225.01	-0.000
225.22	-0.000
225.44	-0.000
225.65	-0.000
225.86	-0.000
226.08	-0.000
226.29	-0.000
226.51	-0.000
226.72	-0.000
226.93	-0.000
227.15	-0.000
227.36	-0.000
227.58	-0.000
227.79	-0.000
228.00	-0.000
228.22	-0.000
228.43	-0.000
228.65	-0.000
228.86	-0.000
229.07	-0.000
229.29	-0.000
229.50	-0.000
229.72	-0.000
229.93	-0.000
230.14	-0.000
230.36	-0.000
230.57	-0.000
230.78	-0.000
231.00	-0.000
231.21	-0.000
231.43	-0.000
231.64	-0.000
231.85	-0.000
232.07	-0.000
232.28	-0.000
232.50	-0.000
232.71	-0.000
232.92	-0.000
233.14	-0.000
233.35	-0.000
233.56	-0.000
233.78	-0.000
233.99	-0.000
234.21	-0.000
234.42	-0.000
234.63	-0.000
234.85	-0.000
235.06	-0.000
235.27	-0.000
235.49	-0.000
235.70	-0.000
235.91	-0.000
236.13	-0.000
236.34	-0.000
236.56	-0.000
236.77	-0.000
236.98	-0.000
237.20	-0.000
237.41	-0.000
237.62	-0.000
237.84	-0.000
238.05	-0.000
238.26	-0.000
238.48	-0.000
238.69	-0.000
238.91	-0.000
239.12	-0.000
239.33	-0.000
239.55	-0.000
239.76	-0.000
239.97	-0.000
240.19	-0.000
240.40	-0.000
240.61	-0.000
240.83	-0.000
241.04	-0.000
241.25	-0.000
241.47	-0.000
241.68	-0.000
241.89	-0.000
242.11	-0.000
242.32	-0.000
242.53	-0.000
242.75	-0.000
242.96	-0.000
243.17	-0.000
243.39	-0.000
243.60	-0.000
243.81	-0.000
244.03	-0.000
244.24	-0.000
244.45	-0.000
244.67	-0.000
244.88	-0.000
245.09	-0.000
245.31	-0.000
245.52	-0.000
245.73	-0.000
245.95	-0.000
246.16	-0.000
246.37	-0.000
246.59	-0.000
246.80	-0.000
247.01	-0.000
247.23	-0.000
247.44	-0.000
247.65	-0.000
247.87	-0.000
248.08	-0.000
248.29	-0.000
248.51	-0.000
248.72	-0.000
248.93	-0.000
249.15	-0.000
249.36	-0.000
249.57	-0.000
249.78	-0.000
250.00	-0.000
250.21	-0.000
250.42	-0.000
250.64	-0.000
250.85	-0.000
251.06	-0.000
251.28	-0.000
251.49	-0.000
251.70	-0.000
251.92	-0.000
252.13	-0.000
252.34	-0.000
252.55	-0.000
252.77	-0.000
252.98	-0.000
253.19	-0.000
253.41	-0.000
253.62	-0.000
253.83	-0.000
254.05	-0.000
254.26	-0.000
254.47	-0.000
254.68	-0.000
254.90	-0.000
255.11	-0.000
255.32	-0.000
255.54	-0.000
255.75	-0.000
255.96	-0.000
256.17	-0.000
256.39	-0.000
256.60	-0.000
256.81	-0.000
257.03	-0.000
257.24	-0.000
257.45	-0.000
257.66	-0.000
257.88	-0.000
258.09	-0.000
258.30	-0.000
258.51	-0.000
258.73	-0.000
258.94	-0.000
259.15	-0.000
259.37	-0.000
259.58	-0.000
259.79	-0.000
260.00	-0.000
260.22	-0.000
260.43	-0.000
260.64	-0.000
260.85	-0.000
261.07	-0.000
261.28	-0.000
261.49	-0.000
261.71	-0.000
261.92	-0.000
262.13	-0.000
262.34	-0.000
262.56	-0.000
262.77	-0.000
262.98	-0.000
263.19	-0.000
263.41	-0.000
263.62	-0.000
263.83	-0.000
264.04	-0.000
264.26	-0.000
264.47	-0.000
264.68	-0.000
264.89	-0.000
265.11	-0.000
265.32	-0.000
265.53	-0.000
265.74	-0.000
265.96	-0.000
266.17	-0.000
266.38	-0.000
266.59	-0.000
266.81	-0.000
267.02	-0.000
267.23	-0.000
267.44	-0.000
267.65	-0.000
267.87	-0.000
268.08	-0.000
268.29	-0.000
268.50	-0.000
268.72	-0.000
268.93	-0.000
269.14	-0.000
269.35	-0.000
269.57	-0.000
269.78	-0.000
269.99	-0.000
270.20	-0.000
270.41	-0.000
270.63	-0.000
270.84	-0.000
271.05	-0.000
271.26	-0.000
271.48	-0.000
271.69	-0.000
271.90	-0.000
272.11	-0.000
272.32	-0.000
272.54	-0.000
272.75	-0.000
272.96	-0.000
273.17	-0.000
273.39	-0.000
273.60	-0.000
273.81	-0.000
274.02	-0.000
274.23	-0.000
274.45	-0.000
274.66	-0.000
274.87	-0.000
275.08	-0.000
275.29	-0.000
275.51	-0.000
275.72	-0.000
275.93	-0.000
276.14	-0.000
276.35	-0.000
276.57	-0.000
276.78	-0.000
276.99	-0.000
277.20	-0.000
277.41	-0.000
277.63	-0.000
277.84	-0.000
278.05	-0.000
278.26	-0.000
278.47	-0.000
278.69	-0.000
278.90	-0.000
279.11	-0.000
279.32	-0.000
279.53	-0.000
279.74	-0.000
279.96	-0.000
280.17	-0.000
280.38	-0.000
280.59	-0.000
280.80	-0.000
281.02	-0.000
281.23	-0.000
281.44	-0.000
281.65	-0.000
281.86	-0.000
282.07	-0.000
282.29	-0.000
282.50	-0.000
282.71	-0.000
282.92	-0.000
283.13	-0.000
283.35	-0.000
283.56	-0.000
283.77	-0.000
283.98	-0.000
284.19	-0.000
284.40	-0.000
284.62	-0.000
284.83	-0.000
285.04	-0.000
285.25	-0.000
285.46	-0.000
285.67	-0.000
285.88	-0.000
286.10	-0.000
286.31	-0.000
286.52	-0.000
286.73	-0.000
286.94	-0.000
287.15	-0.000
287.37	-0.000
287.58	-0.000
287.79	-0.000
288.00	-0.000
288.21	-0.000
288.42	-0.000
288.63	-0.000
288.85	-0.000
289.06	-0.000
289.27	-0.000
289.48	-0.000
289.69	-0.000
289.90	-0.000
290.11	-0.000
290.33	-0.000
290.54	-0.000
290.75	-0.000
290.96	-0.000
291.17	-0.000
291.38	-0.000
291.59	-0.000
291.81	-0.000
292.02	-0.000
292.23	-0.000
292.44	-0.000
292.65	-0.000
292.86	-0.000
293.07	-0.000
293.28	-0.000
293.50	-0.000
293.71	-0.000
293.92	-0.000
294.13	-0.000
294.34	-0.000
294.55	-0.000
294.76	-0.000
294.97	-0.000
295.19	-0.000
295.40	-0.000
295.61	-0.000
295.82	-0.000
296.03	-0.000
296.24	-0.000
296.45	-0.000
296.66	-0.000
296.87	-0.000
297.09	-0.000
297.30	-0.000
297.51	-0.000
297.72	-0.000
297.93	-0.000
298.14	-0.000
298.35	-0.000
298.56	-0.000
298.77	-0.000
298.99	-0.000
299.20	-0.000
299.41	-0.000
299.62	-0.000
299.83	-0.000
300.04	-0.000
300.25	-0.000
300.46	-0.000
300.67	-0.000
300.88	-0.000
301.10	-0.000
301.31	-0.000
301.52	-0.000
301.73	-0.000
301.94	-0.000
302.15	-0.000
302.36	-0.000
302.57	-0.000
302.78	-0.000
302.99	-0.000
303.20	-0.000
303.41	-0.000
303.63	-0.000
303.84	-0.000
304.05	-0.000
304.26	-0.000
304.47	-0.000
304.68	-0.000
304.89	-0.000
305.10	-0.000
305.31	-0.000
305.52	-0.000
305.73	-0.000
305.94	-0.000
306.15	-0.000
306.37	-0.000
306.58	-0.000
306.79	-0.000
307.00	-0.000
307.21	-0.000
307.42	-0.000
307.63	-0.000
307.84	-0.000
308.05	-0.000
308.26	-0.000
308.47	-0.000
308.68	-0.000
308.89	-0.000
309.10	-0.000
309.31	-0.000
309.52	-0.000
309.73	-0.000
309.95	-0.000
310.16	-0.000
310.37	-0.000
310.58	-0.000
310.79	-0.000
311.00	-0.000
311.21	-0.000
311.42	-0.000
311.63	-0.000
311.84	-0.000
312.05	-0.000
312.26	-0.000
312.47	-0.000
312.68	-0.000
312.89	-0.000
313.10	-0.000
313.31	-0.000
313.52	-0.000
313.73	-0.000
313.94	-0.000
314.15	-0.000
314.36	-0.000
314.57	-0.000
314.78	-0.000
314.99	-0.000
315.21	-0.000
315.42	-0.000
315.63	-0.000
315.84	-0.000
316.05	-0.000
316.26	-0.000
316.47	-0.000
316.68	-0.000
316.89	-0.000
317.10	-0.000
317.31	-0.000
317.52	-0.000
317.73	-0.000
317.94	-0.000
318.15	-0.000
318.36	-0.000
318.57	-0.000
318.78	-0.000
318.99	-0.000
319.20	-0.000
319.41	-0.000
319.62	-0.000
319.83	-0.000
320.04	-0.000
320.25	-0.000
320.46	-0.000
320.67	-0.000
320.88	-0.000
321.09	-0.000
321.30	-0.000
321.51	-0.000
321.72	-0.000
321.93	-0.000
322.14	-0.000
322.35	-0.000
322.56	-0.000
322.77	-0.000
322.98	-0.000
323.19	-0.000
323.40	-0.000
323.61	-0.000
323.82	-0.000
324.03	-0.000
324.24	-0.000
324.45	-0.000
324.66	-0.000
324.87	-0.000
325.08	-0.000
325.29	-0.000
325.50	-0.000
325.71	-0.000
325.92	-0.000
326.13	-0.000
326.34	-0.000
326.55	-0.000
326.76	-0.000
326.97	-0.000
327.18	-0.000
327.39	-0.000
327.60	-0.000
327.80	-0.000
328.01	-0.000
328.22	-0.000
328.43	-0.000
328.64	-0.000
328.85	-0.000
329.06	-0.000
329.27	-0.000
329.48	-0.000
329.69	-0.000
329.90	-0.000
330.11	-0.000
330.32	-0.000
330.53	-0.000
330.74	-0.000
330.95	-0.000
331.16	-0.000
331.37	-0.000
331.58	-0.000
331.79	-0.000
332.00	-0.000
332.21	-0.000
332.42	-0.000
332.63	-0.000
332.83	-0.000
333.04	-0.000
333.25	-0.000
333.46	-0.000
333.67	-0.000
333.88	-0.000
334.09	-0.000
334.30	-0.000
334.51	-0.000
334.72	-0.000
334.93	-0.000
335.14	-0.000
335.35	-0.000
335.56	-0.000
335.77	-0.000
335.98	-0.000
336.18	-0.000
336.39	-0.000
336.60	-0.000
336.81	-0.000
337.02	-0.000
337.23	-0.000
337.44	-0.000
337.65	-0.000
337.86	-0.000
338.07	-0.000
338.28	-0.000
338.49	-0.000
338.70	-0.000
338.91	-0.000
339.11	-0.000
339.32	-0.000
339.53	-0.000
339.74	-0.000
339.95	-0.000
340.16	-0.000
340.37	-0.000
340.58	-0.000
340.79	-0.000
341.00	-0.000
341.21	-0.000
341.41	-0.000
341.62	-0.000
341.83	-0.000
342.04	-0.000
342.25	-0.000
342.46	-0.000
342.67	-0.000
342.88	-0.000
343.09	-0.000
343.30	-0.000
343.50	-0.000
343.71	-0.000
343.92	-0.000
344.13	-0.000
344.34	-0.000
344.55	-0.000
344.76	-0.000
344.97	-0.000
345.18	-0.000
345.38	-0.000
345.59	-0.000
345.80	-0.000
346.01	-0.000
346.22	-0.000
346.43	-0.000
346.64	-0.000
346.85	-0.000
347.06	-0.000
347.26	-0.000
347.47	-0.000
347.68	-0.000
347.89	-0.000
348.10	-0.000
348.31	-0.000
348.52	-0.000
348.73	-0.000
348.93	-0.000
349.14	-0.000
349.35	-0.000
349.56	-0.000
349.77	-0.000
349.98	-0.000
350.19	-0.000
350.39	-0.000
350.60	-0.000
350.81	-0.000
351.02	-0.000
351.23	-0.000
351.44	-0.000
351.65	-0.000
351.86	-0.000
352.06	-0.000
352.27	-0.000
352.48	-0.000
352.69	-0.000
352.90	-0.000
353.11	-0.000
353.31	-0.000
353.52	-0.000
353.73	-0.000
353.94	-0.000
354.15	-0.000
354.36	-0.000
354.57	-0.000
354.77	-0.000
354.98	-0.000
355.19	-0.000
355.40	-0.000
355.61	-0.000
355.82	-0.000
356.02	-0.000
356.23	-0.000
356.44	-0.000
356.65	-0.000
356.86	-0.000
357.07	-0.000
357.27	-0.000
357.48	-0.000
357.69	-0.000
357.90	-0.000
358.11	-0.000
358.32	-0.000
358.52	-0.000
358.73	-0.000
358.94	-0.000
359.15	-0.000
359.36	-0.000
359.56	-0.000
359.77	-0.000
359.98	-0.000
360.19	-0.000
360.40	-0.000
360.61	-0.000
360.81	-0.000
361.02	-0.000
361.23	-0.000
361.44	-0.000
361.65	-0.000
361.85	-0.000
362.06	-0.000
362.27	-0.000
362.48	-0.000
362.69	-0.000
362.89	-0.000
363.10	-0.000
363.31	-0.000
363.52	-0.000
363.73	-0.000
363.93	-0.000
364.14	-0.000
364.35	-0.000
364.56	-0.000
364.77	-0.000
364.97	-0.000
365.18	-0.000
365.39	-0.000
365.60	-0.000
365.81	-0.000
366.01	-0.000
366.22	-0.000
366.43	-0.000
366.64	-0.000
366.84	-0.000
367.05	-0.000
367.26	-0.000
367.47	-0.000
367.68	-0.000
367.88	-0.000
368.09	-0.000
368.30	-0.000
368.51	-0.000
368.71	-0.000
368.92	-0.000
369.13	-0.000
369.34	-0.000
369.55	-0.000
369.75	-0.000
369.96	-0.000
370.17	-0.000
370.38	-0.000
370.58	-0.000
370.79	-0.000
371.00	-0.000
371.21	-0.000
371.41	-0.000
371.62	-0.000
371.83	-0.000
372.04	-0.000
372.24	-0.000
372.45	-0.000
372.66	-0.000
372.87	-0.000
373.07	-0.000
373.28	-0.000
373.49	-0.000
373.70	-0.000
373.90	-0.000
374.11	-0.000
374.32	-0.000
374.53	-0.000
374.73	-0.000
374.94	-0.000
375.15	-0.000
375.36	-0.000
375.56	-0.000
375.77	-0.000
375.98	-0.000
376.19	-0.000
376.39	-0.000
376.60	-0.000
376.81	-0.000
377.02	-0.000
377.22	-0.000
377.43	-0.000
377.64	-0.000
377.84	-0.000
378.05	-0.000
378.26	-0.000
378.47	-0.000
378.67	-0.000
378.88	-0.000
379.09	-0.000
379.30	-0.000
379.50	-0.000
379.71	-0.000
379.92	-0.000
380.12	-0.000
380.33	-0.000
380.54	-0.000
380.75	-0.000
380.95	-0.000
381.16	-0.000
381.37	-0.000
381.57	-0.000
381.78	-0.000
381.99	-0.000
382.20	-0.000
382.40	-0.000
382.61	-0.000
382.82	-0.000
383.02	-0.000
383.23	-0.000
383.44	-0.000
383.64	-0.000
383.85	-0.000
384.06	-0.000
384.27	-0.000
384.47	-0.000
384.68	-0.000
384.89	-0.000
385.09	-0.000
385.30	-0.000
385.51	-0.000
385.71	-0.000
385.92	-0.000
386.13	-0.000
386.33	-0.000
386.54	-0.000
386.75	-0.000
386.95	-0.000
387.16	-0.000
387.37	-0.000
387.58	-0.000
387.78	-0.000
387.99	-0.000
388.20	-0.000
388.40	-0.000
388.61	3.289
388.82	-0.000
389.02	-0.000
389.23	-0.000
389.44	-0.000
389.64	-0.000
389.85	-0.000
390.06	-0.000
390.26	-0.000
390.47	-0.000
390.68	-0.000
390.88	-0.000
391.09	-0.000
391.30	-0.000
391.50	-0.000
391.71	-0.000
391.92	-0.000
392.12	3.531
392.33	3.649
392.53	3.298
392.74	3.992
392.95	3.256
393.15	4.537
393.36	-0.000
393.57	-0.000
393.77	-0.000
393.98	-0.000
394.19	-0.000
394.39	-0.000
394.60	-0.000
394.81	-0.000
395.01	-0.000
395.22	-0.000
395.43	-0.000
395.63	-0.000
395.84	-0.000
396.04	-0.000
396.25	-0.000
396.46	-0.000
396.66	-0.000
396.87	-0.000
397.08	-0.000
397.28	-0.000
397.49	-0.000
397.69	-0.000
397.90	2.862
398.11	2.921
398.31	2.880
398.52	2.580
398.73	2.781
398.93	2.695
399.14	2.694
399.34	2.673
399.55	2.714
399.76	2.755
399.96	2.768
400.17	2.696
400.37	2.624
400.58	-0.000
400.79	-0.000
400.99	3.359
401.20	-0.000
401.41	-0.000
401.61	-0.000
401.82	-0.000
402.02	-0.000
402.23	-0.000
402.44	-0.000
402.64	-0.000
402.85	-0.000
403.05	-0.000
403.26	-0.000
403.47	3.266
403.67	3.051
403.88	3.087
404.08	2.455
404.29	2.400
404.50	2.381
404.70	2.371
404.91	2.345
405.11	2.281
405.32	2.299
405.52	2.312
405.73	2.305
405.94	2.272
406.14	2.361
406.35	2.414
406.55	2.417
406.76	2.332
406.97	2.366
407.17	2.494
407.38	2.510
407.58	2.480
407.79	2.592
407.99	2.749
408.20	2.774
408.41	2.505
408.61	2.438
408.82	2.436
409.02	2.450
409.23	2.391
409.43	2.316
409.64	2.325
409.84	2.317
410.05	2.235
410.26	2.190
410.46	2.190
410.67	2.200
410.87	2.268
411.08	2.348
411.28	2.369
411.49	2.451
411.69	2.373
411.90	2.453
412.11	2.483
412.31	2.508
412.52	2.443
412.72	2.466
412.93	2.467
413.13	2.440
413.34	2.322
413.54	2.412
413.75	2.499
413.95	2.519
414.16	2.411
414.37	2.554
414.57	2.598
414.78	2.849
414.98	2.729
415.19	2.848
415.39	2.506
415.60	2.632
415.80	2.588
416.01	2.446
416.21	2.489
416.42	2.489
416.62	2.308
416.83	2.301
417.03	2.264
417.24	2.271
417.44	2.215
417.65	2.222
417.86	2.211
418.06	2.150
418.27	2.109
418.47	2.149
418.68	2.143
418.88	2.140
419.09	2.111
419.29	2.126
419.50	2.131
419.70	2.137
419.91	2.120
420.11	2.085
420.32	2.131
420.52	2.137
420.73	2.125
420.93	2.143
421.14	2.210
421.34	2.200
421.55	2.156
421.75	2.155
421.96	2.172
422.16	2.172
422.37	2.163
422.57	2.118
422.78	2.150
422.98	2.091
423.19	2.068
423.39	2.027
423.60	2.101
423.80	2.118
424.01	2.103
424.21	2.160
424.42	2.171
424.62	2.168
424.83	2.149
425.03	2.140
425.23	2.167
425.44	2.168
425.64	2.186
425.85	2.146
426.05	2.141
426.26	2.150
426.46	2.070
426.67	2.057
426.87	2.142
427.08	2.149
427.28	2.114
427.49	2.137
427.69	2.138
427.90	2.114
428.10	2.067
428.31	2.067
428.51	2.105
428.71	2.093
428.92	2.132
429.12	2.081
429.33	2.091
429.53	2.212
429.74	2.418
429.94	2.461
430.15	2.446
430.35	2.438
430.56	2.358
430.76	2.310
430.96	2.352
431.17	2.266
431.37	2.225
431.58	2.203
431.78	2.101
431.99	1.954
432.19	1.998
432.40	2.032
432.60	2.042
432.80	2.098
433.01	2.081
433.21	2.074
433.42	2.103
433.62	2.094
433.83	2.086
434.03	2.143
434.23	2.206
434.44	2.170
434.64	2.113
434.85	2.256
435.05	2.283
435.26	2.275
435.46	2.260
435.66	2.252
435.87	2.252
436.07	2.258
436.28	2.159
436.48	2.111
436.69	2.096
436.89	2.109
437.09	1.987
437.30	1.971
437.50	1.974
437.71	2.304
437.91	2.284
438.11	2.324
438.32	2.481
438.52	2.482
438.73	2.449
438.93	2.384
439.13	2.362
439.34	2.547
439.54	2.427
439.75	2.454
439.95	2.079
440.15	2.201
440.36	2.166
440.56	2.108
440.77	2.134
440.97	2.143
441.17	2.108
441.38	2.144
441.58	2.078
441.79	2.079
441.99	2.060
442.19	2.018
442.40	1.964
442.60	1.961
442.81	1.943
443.01	1.941
443.21	1.944
443.42	1.948
443.62	1.930
443.82	1.925
444.03	1.947
444.23	1.948
444.44	1.964
444.64	1.960
444.84	1.999
445.05	1.999
445.25	1.974
445.45	1.974
445.66	2.002
445.86	1.996
446.06	2.033
446.27	2.011
446.47	2.060
446.68	2.025
446.88	2.006
447.08	1.979
447.29	1.992
447.49	1.994
447.69	1.989
447.90	1.973
448.10	2.026
448.30	1.974
448.51	2.013
448.71	1.970
448.91	1.996
449.12	1.984
449.32	2.021
449.52	2.008
449.73	2.070
449.93	2.056
450.14	2.081
450.34	2.060
450.54	2.109
450.75	2.049
450.95	2.044
451.15	2.049
451.36	2.101
451.56	2.044
451.76	2.034
451.97	1.986
452.17	1.986
452.37	1.955
452.58	1.930
452.78	1.927
452.98	1.970
453.19	1.974
453.39	1.990
453.59	1.953
453.79	1.962
454.00	1.975
454.20	1.970
454.40	1.996
454.61	2.042
454.81	2.031
455.01	2.003
455.22	2.018
455.42	2.038
455.62	1.994
455.83	1.990
456.03	2.039
456.23	2.046
456.44	2.050
456.64	2.027
456.84	2.022
457.04	2.035
457.25	2.037
457.45	1.976
457.65	1.959
457.86	1.984
458.06	1.986
458.26	1.932
458.47	1.923
458.67	1.937
458.87	1.940
459.07	1.907
459.28	1.927
459.48	1.953
459.68	1.954
459.89	1.937
460.09	1.914
460.29	1.919
460.49	1.934
460.70	1.933
460.90	1.932
461.10	1.934
461.31	1.941
461.51	1.911
461.71	1.958
461.91	1.968
462.12	1.985
462.32	1.981
462.52	1.987
462.72	2.025
462.93	2.020
463.13	1.998
463.33	2.019
463.53	2.020
463.74	2.020
463.94	1.927
464.14	1.946
464.35	1.952
464.55	1.952
464.75	1.940
464.95	1.911
465.16	1.930
465.36	1.922
465.56	1.914
465.76	1.910
465.97	1.915
466.17	1.929
466.37	1.901
466.57	1.918
466.78	1.929
466.98	1.921
467.18	1.898
467.38	1.884
467.59	1.899
467.79	1.924
467.99	1.915
468.19	1.923
468.39	1.951
468.60	1.948
468.80	1.913
469.00	1.926
469.20	1.939
469.41	1.945
469.61	1.937
469.81	1.938
470.01	1.926
470.22	1.924
470.42	1.909
470.62	1.885
470.82	1.898
471.02	1.903
471.23	1.875
471.43	1.876
471.63	1.905
471.83	1.903
472.04	1.883
472.24	1.858
472.44	1.934
472.64	1.937
472.84	1.916
473.05	1.908
473.25	1.934
473.45	1.929
473.65	1.910
473.85	1.905
474.06	1.910
474.26	1.907
474.46	1.939
474.66	1.879
474.86	1.884
475.07	1.887
475.27	1.875
475.47	1.848
475.67	1.849
475.87	1.877
476.08	1.849
476.28	1.874
476.48	1.900
476.68	1.872
476.88	1.850
477.09	1.860
477.29	1.874
477.49	1.873
477.69	1.868
477.89	1.874
478.09	1.861
478.30	1.887
478.50	1.847
478.70	1.826
478.90	1.832
479.10	1.867
479.31	1.882
479.51	1.861
479.71	1.861
479.91	1.855
480.11	1.839
480.31	1.836
480.52	1.810
480.72	1.810
480.92	1.801
481.12	1.786
481.32	1.762
481.52	1.739
481.72	1.738
481.93	1.778
482.13	1.787
482.33	1.786
482.53	1.770
482.73	1.783
482.93	1.795
483.14	1.792
483.34	1.784
483.54	1.791
483.74	1.778
483.94	1.771
484.14	1.728
484.34	1.726
484.55	1.728
484.75	1.726
484.95	1.711
485.15	1.711
485.35	1.711
485.55	1.711
485.75	1.693
485.96	1.702
486.16	1.716
486.36	1.713
486.56	1.701
486.76	1.706
486.96	1.715
487.16	1.710
487.36	1.698
487.57	1.697
487.77	1.704
487.97	1.714
488.17	1.702
488.37	1.698
488.57	1.700
488.77	1.705
488.97	1.692
489.18	1.683
489.38	1.702
489.58	1.700
489.78	1.700
489.98	1.694
490.18	1.689
490.38	1.691
490.58	1.681
490.78	1.689
490.98	1.694
491.19	1.701
491.39	1.696
491.59	1.685
491.79	1.713
491.99	1.713
492.19	1.713
492.39	1.742
492.59	1.744
492.79	1.765
492.99	1.765
493.20	1.766
493.40	1.762
493.60	1.779
493.80	1.770
494.00	1.742
494.20	1.748
494.40	1.746
494.60	1.722
494.80	1.766
495.00	1.751
495.20	1.741
495.40	1.736
495.61	1.750
495.81	1.742
496.01	1.781
496.21	1.801
496.41	1.795
496.61	1.796
496.81	1.788
497.01	1.739
497.21	1.736
497.41	1.738
497.61	1.735
497.81	1.721
498.01	1.722
498.21	1.692
498.41	1.672
498.61	1.672
498.82	1.685
499.02	1.695
499.22	1.696
499.42	1.692
499.62	1.703
499.82	1.710
500.02	1.717
500.22	1.707
500.42	1.729
500.62	1.732
500.82	1.731
501.02	1.714
501.22	1.716
501.42	1.717
501.62	1.733
501.82	1.722
502.02	1.722
502.22	1.714
502.42	1.736
502.62	1.711
502.82	1.711
503.02	1.723
503.22	1.721
503.42	1.709
503.63	1.710
503.83	1.693
504.03	1.690
504.23	1.682
504.43	1.690
504.63	1.694
504.83	1.690
505.03	1.684
505.23	1.695
505.43	1.711
505.63	1.715
505.83	1.715
506.03	1.724
506.23	1.738
506.43	1.734
506.63	1.726
506.83	1.707
507.03	1.726
507.23	1.728
507.43	1.704
507.63	1.703
507.83	1.703
508.03	1.704
508.23	1.701
508.43	1.689
508.63	1.706
508.83	1.707
509.03	1.725
509.23	1.714
509.43	1.725
509.63	1.729
509.83	1.721
510.03	1.744
510.23	1.750
510.43	1.755
510.63	1.759
510.83	1.750
511.03	1.761
511.23	1.733
511.43	1.730
511.63	1.741
511.83	1.752
512.03	1.749
512.22	1.725
512.42	1.725
512.62	1.735
512.82	1.734
513.02	1.730
513.22	1.723
513.42	1.740
513.62	1.768
513.82	1.746
514.02	1.745
514.22	1.753
514.42	1.751
514.62	1.746
514.82	1.740
515.02	1.761
515.22	1.800
515.42	1.797
515.62	1.824
515.82	1.802
516.02	1.808
516.22	1.810
516.42	1.833
516.62	1.847
516.82	1.860
517.01	1.843
517.21	1.828
517.41	1.868
517.61	1.875
517.81	1.831
518.01	1.827
518.21	1.832
518.41	1.820
518.61	1.801
518.81	1.804
519.01	1.807
519.21	1.812
519.41	1.803
519.61	1.745
519.81	1.768
520.00	1.776
520.20	1.773
520.40	1.799
520.60	1.798
520.80	1.791
521.00	1.800
521.20	1.802
521.40	1.850
521.60	1.851
521.80	1.835
522.00	1.820
522.20	1.835
522.39	1.830
522.59	1.799
522.79	1.819
522.99	1.834
523.19	1.808
523.39	1.801
523.59	1.779
523.79	1.803
523.99	1.831
524.19	1.823
524.38	1.805
524.58	1.820
524.78	1.819
524.98	1.796
525.18	1.820
525.38	1.830
525.58	1.827
525.78	1.803
525.98	1.785
526.18	1.775
526.37	1.770
526.57	1.798
526.77	1.793
526.97	1.796
527.17	1.801
527.37	1.761
527.57	1.781
527.77	1.790
527.96	1.795
528.16	1.786
528.36	1.801
528.56	1.823
528.76	1.790
528.96	1.785
529.16	1.801
529.36	1.820
529.55	1.825
529.75	1.796
529.95	1.792
530.15	1.794
530.35	1.817
530.55	1.787
530.75	1.783
530.94	1.789
531.14	1.791
531.34	1.774
531.54	1.759
531.74	1.778
531.94	1.807
532.13	1.796
532.33	1.821
532.53	1.802
532.73	1.806
532.93	1.790
533.13	1.801
533.33	1.800
533.52	1.800
533.72	1.842
533.92	1.826
534.12	1.801
534.32	1.799
534.52	1.777
534.71	1.793
534.91	1.809
535.11	1.834
535.31	1.812
535.51	1.832
535.71	1.846
535.90	1.803
536.10	1.818
536.30	1.836
536.50	1.848
536.70	1.855
536.89	1.831
537.09	1.827
537.29	1.834
537.49	1.843
537.69	1.817
537.89	1.829
538.08	1.823
538.28	1.800
538.48	1.812
538.68	1.823
538.88	1.837
539.07	1.841
539.27	1.823
539.47	1.810
539.67	1.810
539.87	1.826
540.06	1.798
540.26	1.806
540.46	1.826
540.66	1.793
540.86	1.777
541.05	1.772
541.25	1.783
541.45	1.786
541.65	1.770
541.84	1.785
542.04	1.780
542.24	1.784
542.44	1.772
542.64	1.781
542.83	1.800
543.03	1.803
543.23	1.788
543.43	1.787
543.62	1.801
543.82	1.801
544.02	1.789
544.22	1.787
544.42	1.814
544.61	1.823
544.81	1.796
545.01	1.781
545.21	1.796
545.40	1.785
545.60	1.771
545.80	1.797
546.00	1.798
546.19	1.793
546.39	1.790
546.59	1.767
546.79	1.779
546.98	1.785
547.18	1.786
547.38	1.786
547.58	1.819
547.77	1.821
547.97	1.783
548.17	1.794
548.37	1.794
548.56	1.793
548.76	1.794
548.96	1.802
549.16	1.809
549.35	1.804
549.55	1.784
549.75	1.778
549.95	1.805
550.14	1.804
550.34	1.785
550.54	1.832
550.73	1.863
550.93	1.874
551.13	1.848
551.33	1.837
551.52	1.839
551.72	1.844
551.92	1.819
552.12	1.836
552.31	1.835
552.51	1.839
552.71	1.786
552.90	1.788
553.10	1.787
553.30	1.786
553.50	1.784
553.69	1.797
553.89	1.798
554.09	1.809
554.28	1.767
554.48	1.779
554.68	1.795
554.87	1.799
555.07	1.775
555.27	1.771
555.47	1.778
555.66	1.782
555.86	1.776
556.06	1.800
556.25	1.812
556.45	1.928
556.65	1.920
556.84	1.968
557.04	2.022
557.24	2.030
557.43	2.026
557.63	2.078
557.83	2.097
558.02	2.102
558.22	2.197
558.42	2.173
558.61	1.994
558.81	1.985
559.01	1.916
559.21	1.895
559.40	1.899
559.60	1.909
559.80	1.858
559.99	1.868
560.19	1.874
560.39	1.805
560.58	1.795
560.78	1.801
560.97	1.839
561.17	1.837
561.37	1.822
561.56	1.838
561.76	1.846
561.96	1.850
562.15	1.830
562.35	1.867
562.55	1.871
562.74	1.877
562.94	1.858
563.14	1.830
563.33	1.836
563.53	1.839
563.73	1.812
563.92	1.833
564.12	1.844
564.31	1.861
564.51	1.833
564.71	1.852
564.90	1.859
565.10	1.865
565.30	1.914
565.49	1.923
565.69	1.939
565.89	1.948
566.08	1.906
566.28	1.939
566.47	1.954
566.67	1.930
566.87	1.909
567.06	1.943
567.26	2.047
567.46	1.966
567.65	1.946
567.85	1.956
568.04	1.978
568.24	1.961
568.44	1.915
568.63	1.894
568.83	1.912
569.02	1.886
569.22	1.841
569.42	1.799
569.61	1.814
569.81	1.803
570.00	1.794
570.20	1.808
570.40	1.823
570.59	1.825
570.79	1.804
570.98	1.784
571.18	1.795
571.38	1.788
571.57	1.763
571.77	1.746
571.96	1.776
572.16	1.758
572.35	1.717
572.55	1.731
572.75	1.715
572.94	1.717
573.14	1.706
573.33	1.710
573.53	1.710
573.73	1.704
573.92	1.694
574.12	1.681
574.31	1.694
574.51	1.697
574.70	1.663
574.90	1.673
575.09	1.689
575.29	1.693
575.49	1.673
575.68	1.689
575.88	1.698
576.07	1.710
576.27	1.694
576.46	1.681
576.66	1.676
576.86	1.678
577.05	1.668
577.25	1.659
577.44	1.668
577.64	1.668
577.83	1.650
578.03	1.652
578.22	1.640
578.42	1.637
578.61	1.629
578.81	1.636
579.00	1.634
579.20	1.630
579.40	1.623
579.59	1.616
579.79	1.621
579.98	1.618
580.18	1.624
580.37	1.631
580.57	1.646
580.76	1.692
580.96	1.682
581.15	1.693
581.35	1.703
581.54	1.700
581.74	1.692
581.93	1.705
582.13	1.712
582.32	1.688
582.52	1.676
582.71	1.670
582.91	1.633
583.10	1.635
583.30	1.627
583.49	1.624
583.69	1.649
583.88	1.660
584.08	1.648
584.27	1.665
584.47	1.684
584.66	1.687
584.86	1.676
585.05	1.686
585.25	1.701
585.44	1.698
585.64	1.695
585.83	1.673
586.03	1.679
586.22	1.675
586.42	1.653
586.61	1.676
586.81	1.702
587.00	1.706
587.20	1.689
587.39	1.696
587.59	1.708
587.78	1.712
587.98	1.716
588.17	1.716
588.37	1.728
588.56	1.735
588.76	1.695
588.95	1.685
589.15	1.722
589.34	1.745
589.54	1.725
589.73	1.730
589.92	1.747
590.12	1.736
590.31	1.720
590.51	1.776
590.70	1.786
590.90	1.784
591.09	1.765
591.29	1.738
591.48	1.729
591.68	1.738
591.87	1.726
592.06	1.726
592.26	1.758
592.45	1.750
592.65	1.691
592.84	1.694
593.04	1.713
593.23	1.735
593.43	1.721
593.62	1.721
593.81	1.732
594.01	1.733
594.20	1.721
594.40	1.707
594.59	1.725
594.79	1.734
594.98	1.726
595.17	1.714
595.37	1.717
595.56	1.722
595.76	1.721
595.95	1.724
596.14	1.740
596.34	1.741
596.53	1.726
596.73	1.731
596.92	1.726
597.12	1.742
597.31	1.742
597.50	1.729
597.70	1.749
597.89	1.738
598.09	1.715
598.28	1.730
598.47	1.757
598.67	1.751
598.86	1.732
599.06	1.766
599.25	1.772
599.44	1.759
599.64	1.749
599.83	1.735
600.03	1.765
600.22	1.770
600.41	1.777
600.61	1.749
600.80	1.766
601.00	1.767
601.19	1.733
601.38	1.714
601.58	1.729
601.77	1.737
601.96	1.755
602.16	1.747
602.35	1.835
602.55	1.799
602.74	1.802
602.93	1.812
603.13	1.855
603.32	1.853
603.51	1.858
603.71	1.895
603.90	1.897
604.09	1.903
604.29	1.876
604.48	1.805
604.68	1.814
604.87	1.808
605.06	1.782
605.26	1.752
605.45	1.755
605.64	1.745
605.84	1.708
606.03	1.711
606.22	1.701
606.42	1.697
606.61	1.680
606.80	1.682
607.00	1.705
607.19	1.706
607.38	1.707
607.58	1.730
607.77	1.748
607.96	1.751
608.16	1.744
608.35	1.797
608.54	1.831
608.74	1.862
608.93	1.945
609.12	1.968
609.32	2.002
609.51	2.031
609.70	1.992
609.90	2.021
610.09	2.071
610.28	2.154
610.48	2.009
610.67	2.020
610.86	2.019
611.06	1.902
611.25	1.869
611.44	1.869
611.64	1.868
611.83	1.914
612.02	1.877
612.21	1.865
612.41	1.838
612.60	1.834
612.79	1.799
612.99	1.804
613.18	1.836
613.37	1.816
613.57	1.811
613.76	1.827
613.95	1.796
614.14	1.789
614.34	1.771
614.53	1.780
614.72	1.809
614.92	1.813
615.11	1.783
615.30	1.751
615.49	1.771
615.69	1.790
615.88	1.764
616.07	1.777
616.26	1.801
616.46	1.818
616.65	1.801
616.84	1.787
617.04	1.794
617.23	1.824
617.42	1.829
617.61	1.854
617.81	1.836
618.00	1.858
618.19	1.837
618.38	1.884
618.58	1.921
618.77	1.920
618.96	1.916
619.15	1.940
619.35	1.972
619.54	1.982
619.73	1.927
619.92	1.968
620.12	2.019
620.31	2.022
620.50	1.934
620.69	1.924
620.89	1.964
621.08	1.970
621.27	1.971
621.46	1.946
621.66	2.003
621.85	2.011
622.04	1.972
622.23	1.999
622.43	2.012
622.62	2.027
622.81	2.027
623.00	2.016
623.19	2.059
623.39	2.039
623.58	2.005
623.77	1.981
623.96	2.019
624.16	2.016
624.35	1.938
624.54	1.974
624.73	2.028
624.92	1.994
625.12	1.965
625.31	1.970
625.50	2.012
625.69	2.022
625.88	1.985
626.08	1.973
626.27	1.984
626.46	1.991
626.65	1.944
626.84	1.922
627.04	1.988
627.23	1.992
627.42	1.940
627.61	1.969
627.80	1.983
628.00	1.998
628.19	1.979
628.38	2.026
628.57	2.048
628.76	2.046
628.96	2.008
629.15	2.007
629.34	2.049
629.53	2.064
629.72	1.979
629.91	2.000
630.11	2.026
630.30	2.012
630.49	2.073
630.68	2.093
630.87	2.148
631.06	2.196
631.26	2.105
631.45	2.136
631.64	2.333
631.83	2.413
632.02	2.346
632.21	2.321
632.41	2.617
632.60	2.331
632.79	2.252
632.98	2.253
633.17	2.267
633.36	2.323
633.55	2.228
633.75	2.122
633.94	2.125
634.13	2.126
634.32	2.100
634.51	2.007
634.70	2.026
634.89	2.033
635.09	1.992
635.28	1.995
635.47	1.999
635.66	2.054
635.85	2.016
636.04	2.053
636.23	2.147
636.43	2.169
636.62	2.189
636.81	2.179
637.00	2.211
637.19	2.299
637.38	2.273
637.57	2.299
637.76	2.348
637.95	2.335
638.15	2.226
638.34	2.150
638.53	2.190
638.72	2.193
638.91	2.148
639.10	2.130
639.29	2.101
639.48	2.093
639.67	2.091
639.87	2.067
640.06	2.196
640.25	2.201
640.44	2.198
640.63	2.235
640.82	2.280
641.01	2.307
641.20	2.325
641.39	2.455
641.58	2.560
641.78	2.505
641.97	2.383
642.16	-0.000
642.35	-0.000
642.54	-0.000
642.73	3.456
642.92	3.075
643.11	-0.000
643.30	4.123
643.49	2.793
643.68	2.981
643.87	2.974
644.06	3.011
644.25	2.072
644.45	2.165
644.64	2.192
644.83	2.178
645.02	2.165
645.21	2.149
645.40	2.160
645.59	2.155
645.78	2.073
645.97	2.133
646.16	2.107
646.35	2.094
646.54	2.050
646.73	2.073
646.92	2.128
647.11	2.110
647.30	2.051
647.49	2.095
647.68	2.097
647.88	2.086
648.07	2.013
648.26	2.093
648.45	2.107
648.64	2.084
648.83	2.055
649.02	2.113
649.21	2.437
649.40	2.422
649.59	2.277
649.78	2.320
649.97	-0.000
650.16	-0.000
650.35	2.765
650.54	-0.000
650.73	-0.000
650.92	-0.000
651.11	4.153
651.30	2.992
651.49	-0.000
651.68	-0.000
651.87	3.902
652.06	2.326
652.25	2.408
652.44	2.426
652.63	2.190
652.82	2.133
653.01	2.110
653.20	2.066
653.39	1.905
653.58	1.881
653.77	1.879
653.96	1.847
654.15	1.784
654.34	1.782
654.53	1.767
654.72	1.739
654.91	1.683
655.10	1.662
655.29	1.657
655.48	1.645
655.67	1.617
655.86	1.605
656.05	1.600
656.24	1.603
656.43	1.576
656.62	1.584
656.81	1.606
657.00	1.602
657.19	1.600
657.38	1.611
657.57	1.617
657.76	1.643
657.95	1.638
658.14	1.674
658.33	1.707
658.51	1.760
658.70	1.746
658.89	1.727
659.08	1.793
659.27	1.850
659.46	1.831
659.65	1.893
659.84	1.925
660.03	1.956
660.22	1.946
660.41	1.992
660.60	1.974
660.79	2.004
660.98	2.134
661.17	2.071
661.36	2.048
661.55	2.073
661.74	2.013
661.92	2.047
662.11	2.077
662.30	2.054
662.49	1.964
662.68	1.957
662.87	1.976
663.06	1.885
663.25	1.924
663.44	1.925
663.63	1.932
663.82	1.931
664.01	1.865
664.20	1.852
664.38	1.865
664.57	1.869
664.76	1.867
664.95	1.890
665.14	1.959
665.33	1.902
665.52	2.066
665.71	2.200
665.90	2.220
666.09	2.300
666.28	2.256
666.46	2.195
666.65	2.202
666.84	2.192
667.03	2.091
667.22	2.068
667.41	2.147
667.60	1.945
667.79	1.841
667.98	1.854
668.16	1.853
668.35	1.854
668.54	1.835
668.73	1.853
668.92	1.866
669.11	1.862
669.30	1.802
669.49	1.761
669.67	1.789
669.86	1.826
670.05	1.807
670.24	1.790
670.43	1.785
670.62	1.782
670.81	1.739
671.00	1.746
671.18	1.741
671.37	1.739
671.56	1.722
671.75	1.707
671.94	1.685
672.13	1.673
672.32	1.643
672.50	1.638
672.69	1.641
672.88	1.648
673.07	1.622
673.26	1.638
673.45	1.649
673.63	1.654
673.82	1.636
674.01	1.646
674.20	1.640
674.39	1.641
674.58	1.640
674.76	1.644
674.95	1.640
675.14	1.642
675.33	1.615
675.52	1.606
675.71	1.606
675.89	1.604
676.08	1.583
676.27	1.586
676.46	1.592
676.65	1.592
676.84	1.594
677.02	1.604
677.21	1.617
677.40	1.612
677.59	1.609
677.78	1.613
677.96	1.635
678.15	1.634
678.34	1.630
678.53	1.637
678.72	1.630
678.90	1.609
679.09	1.593
679.28	1.580
679.47	1.584
679.66	1.579
679.84	1.567
680.03	1.551
680.22	1.548
680.41	1.560
680.60	1.541
680.78	1.543
680.97	1.560
681.16	1.559
681.35	1.549
681.53	1.546
681.72	1.554
681.91	1.566
682.10	1.557
682.29	1.574
682.47	1.561
682.66	1.545
682.85	1.536
683.04	1.530
683.22	1.530
683.41	1.548
683.60	1.545
683.79	1.552
683.97	1.544
684.16	1.542
684.35	1.521
684.54	1.529
684.72	1.547
684.91	1.559
685.10	1.545
685.29	1.556
685.47	1.540
685.66	1.540
685.85	1.521
686.04	1.522
686.22	1.534
686.41	1.556
686.60	1.539
686.79	1.565
686.97	1.567
687.16	1.579
687.35	1.564
687.54	1.589
687.72	1.610
687.91	1.611
688.10	1.633
688.29	1.637
688.47	1.613
688.66	1.617
688.85	1.585
689.03	1.577
689.22	1.621
689.41	1.624
689.60	1.590
689.78	1.580
689.97	1.587
690.16	1.569
690.34	1.547
690.53	1.555
690.72	1.553
690.91	1.545
691.09	1.535
691.28	1.494
691.47	1.491
691.65	1.492
691.84	1.478
692.03	1.474
692.21	1.461
692.40	1.463
692.59	1.452
692.77	1.452
692.96	1.459
693.15	1.465
693.34	1.457
693.52	1.454
693.71	1.453
693.90	1.456
694.08	1.464
694.27	1.475
694.46	1.550
694.64	1.553
694.83	1.551
695.02	1.549
695.20	1.549
695.39	1.545
695.58	1.549
695.76	1.556
695.95	1.549
696.14	1.543
696.32	1.527
696.51	1.457
696.70	1.458
696.88	1.465
697.07	1.456
697.26	1.461
697.44	1.470
697.63	1.463
697.81	1.455
698.00	1.462
698.19	1.461
698.37	1.462
698.56	1.459
698.75	1.463
698.93	1.460
699.12	1.459
699.31	1.457
699.49	1.453
699.68	1.460
699.87	1.473
700.05	1.470
700.24	1.464
700.42	1.475
700.61	1.474
700.80	1.460
700.98	1.464
701.17	1.470
701.36	1.464
701.54	1.462
701.73	1.468
701.91	1.455
702.10	1.455
702.29	1.452
702.47	1.450
702.66	1.463
702.84	1.476
703.03	1.467
703.22	1.485
703.40	1.487
703.59	1.502
703.77	1.505
703.96	1.506
704.15	1.516
704.33	1.513
704.52	1.505
704.70	1.496
704.89	1.490
705.08	1.485
705.26	1.459
705.45	1.458
705.63	1.452
705.82	1.436
706.00	1.429
706.19	1.424
706.38	1.424
706.56	1.425
706.75	1.417
706.93	1.413
707.12	1.421
707.30	1.422
707.49	1.412
707.68	1.404
707.86	1.399
708.05	1.401
708.23	1.392
708.42	1.395
708.60	1.414
708.79	1.415
708.98	1.411
709.16	1.410
709.35	1.422
709.53	1.452
709.72	1.447
709.90	1.460
710.09	1.471
710.27	1.479
710.46	1.508
710.64	1.489
710.83	1.494
711.02	1.504
711.20	1.499
711.39	1.487
711.57	1.463
711.76	1.465
711.94	1.458
712.13	1.466
712.31	1.463
712.50	1.434
712.68	1.425
712.87	1.433
713.05	1.434
713.24	1.429
713.42	1.427
713.61	1.429
713.79	1.440
713.98	1.437
714.16	1.442
714.35	1.439
714.54	1.445
714.72	1.444
714.91	1.433
715.09	1.477
715.28	1.495
715.46	1.495
715.65	1.484
715.83	1.481
716.02	1.503
716.20	1.480
716.39	1.485
716.57	1.495
716.76	1.508
716.94	1.511
717.12	1.453
717.31	1.466
717.49	1.487
717.68	1.505
717.86	1.498
718.05	1.504
718.23	1.516
718.42	1.529
718.60	1.538
718.79	1.621
718.97	1.637
719.16	1.642
719.34	1.630
719.53	1.630
719.71	1.625
719.90	1.640
720.08	1.617
720.27	1.620
720.45	1.613
720.63	1.595
720.82	1.530
721.00	1.544
721.19	1.564
721.37	1.550
721.56	1.545
721.74	1.560
721.93	1.626
722.11	1.683
722.30	1.675
722.48	1.715
722.66	1.709
722.85	1.689
723.03	1.705
723.22	1.692
723.40	1.717
723.59	1.719
723.77	1.779
723.95	1.691
724.14	1.703
724.32	1.716
724.51	1.705
724.69	1.734
724.88	1.729
725.06	1.701
725.24	1.703
725.43	1.720
725.61	1.748
725.80	1.667
725.98	1.664
726.16	1.627
726.35	1.683
726.53	1.671
726.72	1.660
726.90	1.784
727.09	1.789
727.27	1.862
727.45	1.817
727.64	1.942
727.82	2.070
728.01	2.124
728.19	2.080
728.37	2.198
728.56	2.335
728.74	2.690
728.92	2.153
729.11	2.226
729.29	2.121
729.48	2.186
729.66	1.961
729.84	1.951
730.03	1.992
730.21	2.032
730.40	1.866
730.58	1.863
730.76	1.835
730.95	1.855
731.13	1.828
731.31	2.072
731.50	2.212
731.68	2.307
731.86	2.222
732.05	-0.000
732.23	-0.000
732.42	-0.000
732.60	-0.000
732.78	-0.000
732.97	-0.000
733.15	-0.000
733.33	-0.000
733.52	-0.000
733.70	-0.000
733.88	-0.000
734.07	-0.000
734.25	-0.000
734.43	-0.000
734.62	-0.000
734.80	-0.000
734.98	-0.000
735.17	-0.000
735.35	-0.000
735.53	-0.000
735.72	-0.000
735.90	-0.000
736.08	-0.000
736.27	-0.000
736.45	-0.000
736.63	-0.000
736.82	-0.000
737.00	-0.000
737.18	-0.000
737.37	-0.000
737.55	-0.000
737.73	-0.000
737.92	-0.000
738.10	-0.000
738.28	-0.000
738.46	-0.000
738.65	-0.000
738.83	-0.000
739.01	-0.000
739.20	-0.000
739.38	-0.000
739.56	-0.000
739.75	-0.000
739.93	-0.000
740.11	-0.000
740.29	-0.000
740.48	-0.000
740.66	-0.000
740.84	-0.000
741.03	-0.000
741.21	-0.000
741.39	-0.000
741.57	-0.000
741.76	-0.000
741.94	-0.000
742.12	-0.000
742.31	-0.000
742.49	-0.000
742.67	-0.000
742.85	-0.000
743.04	-0.000
743.22	-0.000
743.40	-0.000
743.58	-0.000
743.77	-0.000
743.95	-0.000
744.13	-0.000
744.31	-0.000
744.50	-0.000
744.68	-0.000
744.86	-0.000
745.04	-0.000
745.23	-0.000
745.41	-0.000
745.59	-0.000
745.77	-0.000
745.96	-0.000
746.14	-0.000
746.32	-0.000
746.50	-0.000
746.69	-0.000
746.87	-0.000
747.05	-0.000
747.23	-0.000
747.42	-0.000
747.60	-0.000
747.78	-0.000
747.96	-0.000
748.14	-0.000
748.33	-0.000
748.51	-0.000
748.69	-0.000
748.87	-0.000
749.06	-0.000
749.24	-0.000
749.42	-0.000
749.60	-0.000
749.78	-0.000
749.97	-0.000
750.15	-0.000
750.33	-0.000
750.51	-0.000
750.69	-0.000
750.88	-0.000
751.06	-0.000
751.24	-0.000
751.42	-0.000
751.60	-0.000
751.79	-0.000
751.97	-0.000
752.15	-0.000
752.33	-0.000
752.51	-0.000
752.69	-0.000
752.88	-0.000
753.06	-0.000
753.24	-0.000
753.42	-0.000
753.60	-0.000
753.78	-0.000
753.97	-0.000
754.15	-0.000
754.33	-0.000
754.51	-0.000
754.69	-0.000
754.87	-0.000
755.06	-0.000
755.24	-0.000
755.42	-0.000
755.60	-0.000
755.78	-0.000
755.96	-0.000
756.15	-0.000
756.33	-0.000
756.51	-0.000
756.69	-0.000
756.87	-0.000
757.05	-0.000
757.23	-0.000
757.42	-0.000
757.60	-0.000
757.78	-0.000
757.96	-0.000
758.14	-0.000
758.32	-0.000
758.50	-0.000
758.69	-0.000
758.87	-0.000
759.05	-0.000
759.23	-0.000
759.41	-0.000
759.59	-0.000
759.77	-0.000
759.95	-0.000
760.13	-0.000
760.32	-0.000
760.50	-0.000
760.68	-0.000
760.86	-0.000
761.04	-0.000
761.22	-0.000
761.40	-0.000
761.58	-0.000
761.76	-0.000
761.95	-0.000
762.13	-0.000
762.31	-0.000
762.49	-0.000
762.67	-0.000
762.85	-0.000
763.03	-0.000
763.21	-0.000
763.39	-0.000
763.57	-0.000
763.75	-0.000
763.94	-0.000
764.12	-0.000
764.30	-0.000
764.48	-0.000
764.66	-0.000
764.84	-0.000
765.02	-0.000
765.20	-0.000
765.38	-0.000
765.56	-0.000
765.74	-0.000
765.92	-0.000
766.10	-0.000
766.28	-0.000
766.46	-0.000
766.65	-0.000
766.83	-0.000
767.01	-0.000
767.19	-0.000
767.37	-0.000
767.55	-0.000
767.73	-0.000
767.91	-0.000
768.09	-0.000
768.27	-0.000
768.45	-0.000
768.63	-0.000
768.81	-0.000
768.99	-0.000
769.17	-0.000
769.35	-0.000
769.53	-0.000
769.71	-0.000
769.89	-0.000
770.07	-0.000
770.25	-0.000
770.43	-0.000
770.61	-0.000
770.79	-0.000
770.97	-0.000
771.15	-0.000
771.33	-0.000
771.51	-0.000
771.69	-0.000
771.87	-0.000
772.05	-0.000
772.24	-0.000
772.42	-0.000
772.60	-0.000
772.78	-0.000
772.96	-0.000
773.14	-0.000
773.32	-0.000
773.49	-0.000
773.67	-0.000
773.85	-0.000
774.03	-0.000
774.21	-0.000
774.39	-0.000
774.57	-0.000
774.75	-0.000
774.93	-0.000
775.11	-0.000
775.29	-0.000
775.47	-0.000
775.65	-0.000
775.83	-0.000
776.01	-0.000
776.19	-0.000
776.37	-0.000
776.55	-0.000
776.73	-0.000
776.91	-0.000
777.09	-0.000
777.27	-0.000
777.45	-0.000
777.63	-0.000
777.81	-0.000
777.99	-0.000
778.17	-0.000
778.35	-0.000
778.53	-0.000
778.71	-0.000
778.89	-0.000
779.07	-0.000
779.24	-0.000
779.42	-0.000
779.60	-0.000
779.78	-0.000
779.96	-0.000
780.14	-0.000
780.32	-0.000
780.50	-0.000
780.68	-0.000
780.86	-0.000
781.04	-0.000
781.22	-0.000
781.40	-0.000
781.58	-0.000
781.75	-0.000
781.93	-0.000
782.11	-0.000
782.29	-0.000
782.47	-0.000
782.65	-0.000
782.83	-0.000
783.01	-0.000
783.19	-0.000
783.37	-0.000
783.55	-0.000
783.72	-0.000
783.90	-0.000
784.08	-0.000
784.26	-0.000
784.44	-0.000
784.62	-0.000
784.80	-0.000
784.98	-0.000
785.16	-0.000
785.33	-0.000
785.51	-0.000
785.69	-0.000
785.87	-0.000
786.05	-0.000
786.23	-0.000
786.41	-0.000
786.59	-0.000
786.77	-0.000
786.94	-0.000
787.12	-0.000
787.30	-0.000
787.48	-0.000
787.66	-0.000
787.84	-0.000
788.02	-0.000
788.19	-0.000
788.37	-0.000
788.55	-0.000
788.73	-0.000
788.91	-0.000
789.09	-0.000
789.27	-0.000
789.44	-0.000
789.62	-0.000
789.80	-0.000
789.98	-0.000
790.16	-0.000
790.34	-0.000
790.51	-0.000
790.69	-0.000
790.87	-0.000
791.05	-0.000
791.23	-0.000
791.41	-0.000
791.58	-0.000
791.76	-0.000
791.94	-0.000
792.12	-0.000
792.30	-0.000
792.48	-0.000
792.65	-0.000
792.83	-0.000
793.01	-0.000
793.19	-0.000
793.37	-0.000
793.54	-0.000
793.72	-0.000
793.90	-0.000
794.08	-0.000
794.26	-0.000
794.43	-0.000
794.61	-0.000
794.79	-0.000
794.97	-0.000
795.15	-0.000
795.32	-0.000
795.50	-0.000
795.68	-0.000
795.86	-0.000
796.04	-0.000
796.21	-0.000
796.39	-0.000
796.57	-0.000
796.75	-0.000
796.92	-0.000
797.10	-0.000
797.28	-0.000
797.46	-0.000
797.64	-0.000
797.81	-0.000
797.99	-0.000
798.17	-0.000
798.35	-0.000
798.52	-0.000
798.70	-0.000
798.88	-0.000
799.06	-0.000
799.23	-0.000
799.41	-0.000
799.59	-0.000
799.77	-0.000
799.94	-0.000
800.12	-0.000
800.30	-0.000
800.48	-0.000
800.65	-0.000
800.83	-0.000
801.01	-0.000
801.19	-0.000
801.36	-0.000
801.54	-0.000
801.72	-0.000
801.90	-0.000
802.07	-0.000
802.25	-0.000
802.43	-0.000
802.60	-0.000
802.78	-0.000
802.96	-0.000
803.14	-0.000
803.31	-0.000
803.49	-0.000
803.67	-0.000
803.84	-0.000
804.02	-0.000
804.20	-0.000
804.38	-0.000
804.55	-0.000
804.73	-0.000
804.91	-0.000
805.08	-0.000
805.26	-0.000
805.44	-0.000
805.61	-0.000
805.79	-0.000
805.97	-0.000
806.15	-0.000
806.32	-0.000
806.50	-0.000
806.68	-0.000
806.85	-0.000
807.03	-0.000
807.21	-0.000
807.38	-0.000
807.56	-0.000
807.74	-0.000
807.91	-0.000
808.09	-0.000
808.27	-0.000
808.44	-0.000
808.62	-0.000
808.80	-0.000
808.97	-0.000
809.15	-0.000
809.33	-0.000
809.50	-0.000
809.68	-0.000
809.86	-0.000
810.03	-0.000
810.21	-0.000
810.39	-0.000
810.56	-0.000
810.74	-0.000
810.91	-0.000
811.09	-0.000
811.27	-0.000
811.44	-0.000
811.62	-0.000
811.80	-0.000
811.97	-0.000
812.15	-0.000
812.33	-0.000
812.50	-0.000
812.68	-0.000
812.85	-0.000
813.03	-0.000
813.21	-0.000
813.38	-0.000
813.56	-0.000
813.74	-0.000
813.91	-0.000
814.09	-0.000
814.26	-0.000
814.44	-0.000
814.62	-0.000
814.79	-0.000
814.97	-0.000
815.14	-0.000
815.32	-0.000
815.50	-0.000
815.67	-0.000
815.85	-0.000
816.02	-0.000
816.20	-0.000
816.38	-0.000
816.55	-0.000
816.73	-0.000
816.90	-0.000
817.08	-0.000
817.26	-0.000
817.43	-0.000
817.61	-0.000
817.78	-0.000
817.96	-0.000
818.13	-0.000
818.31	-0.000
818.49	-0.000
818.66	-0.000
818.84	-0.000
819.01	-0.000
819.19	-0.000
819.36	-0.000
819.54	-0.000
819.71	-0.000
819.89	-0.000
820.07	-0.000
820.24	-0.000
820.42	-0.000
820.59	-0.000
820.77	-0.000
820.94	-0.000
821.12	-0.000
821.29	-0.000
821.47	-0.000
821.64	-0.000
821.82	-0.000
822.00	-0.000
822.17	-0.000
822.35	-0.000
822.52	-0.000
822.70	-0.000
822.87	-0.000
823.05	-0.000
823.22	-0.000
823.40	-0.000
823.57	-0.000
823.75	-0.000
823.92	-0.000
824.10	-0.000
824.27	-0.000
824.45	-0.000
824.62	-0.000
824.80	-0.000
824.97	-0.000
825.15	-0.000
825.32	-0.000
825.50	-0.000
825.67	-0.000
825.85	-0.000
826.02	-0.000
826.20	-0.000
826.37	-0.000
826.55	-0.000
826.72	-0.000
826.90	-0.000
827.07	-0.000
827.25	-0.000
827.42	-0.000
827.60	-0.000
827.77	-0.000
827.95	-0.000
828.12	-0.000
828.30	-0.000
828.47	-0.000
828.65	-0.000
828.82	-0.000
829.00	-0.000
829.17	-0.000
829.34	-0.000
829.52	-0.000
829.69	-0.000
829.87	-0.000
830.04	-0.000
830.22	-0.000
830.39	-0.000
830.57	-0.000
830.74	-0.000
830.92	-0.000
831.09	-0.000
831.26	-0.000
831.44	-0.000
831.61	-0.000
831.79	-0.000
831.96	-0.000
832.14	-0.000
832.31	-0.000
832.49	-0.000
832.66	-0.000
832.83	-0.000
833.01	-0.000
833.18	-0.000
833.36	-0.000
833.53	-0.000
833.70	-0.000
833.88	-0.000
834.05	-0.000
834.23	-0.000
834.40	-0.000
834.58	-0.000
834.75	-0.000
834.92	-0.000
835.10	-0.000
835.27	-0.000
835.45	-0.000
835.62	-0.000
835.79	-0.000
835.97	-0.000
836.14	-0.000
836.32	-0.000
836.49	-0.000
836.66	-0.000
836.84	-0.000
837.01	-0.000
837.18	-0.000
837.36	-0.000
837.53	-0.000
837.71	-0.000
837.88	-0.000
838.05	-0.000
838.23	-0.000
838.40	-0.000
838.58	-0.000
838.75	-0.000
838.92	-0.000
839.10	-0.000
839.27	-0.000
839.44	-0.000
839.62	-0.000
839.79	-0.000
839.96	-0.000
840.14	-0.000
840.31	-0.000
840.48	-0.000
840.66	-0.000
840.83	-0.000
841.01	-0.000
841.18	-0.000
841.35	-0.000
841.53	-0.000
841.70	-0.000
841.87	-0.000
842.05	-0.000
842.22	-0.000
842.39	-0.000
842.57	-0.000
842.74	-0.000
842.91	-0.000
843.09	-0.000
843.26	-0.000
843.43	-0.000
843.60	-0.000
843.78	-0.000
843.95	-0.000
844.12	-0.000
844.30	-0.000
844.47	-0.000
844.64	-0.000
844.82	-0.000
844.99	-0.000
845.16	-0.000
845.34	-0.000
845.51	-0.000
845.68	-0.000
845.85	-0.000
846.03	-0.000
846.20	-0.000
846.37	-0.000
846.55	-0.000
846.72	-0.000
846.89	-0.000
847.06	-0.000
847.24	-0.000
847.41	-0.000
847.58	-0.000
847.76	-0.000
847.93	-0.000
848.10	-0.000
848.27	-0.000
848.45	-0.000
848.62	-0.000
848.79	-0.000
848.97	-0.000
849.14	-0.000
849.31	-0.000
849.48	-0.000
849.66	-0.000
849.83	-0.000
850.00	-0.000
850.17	-0.000
850.35	-0.000
850.52	-0.000
850.69	-0.000
850.86	-0.000
851.04	-0.000
851.21	-0.000
851.38	-0.000
851.55	-0.000
851.72	-0.000
851.90	-0.000
852.07	-0.000
852.24	-0.000
852.41	-0.000
852.59	-0.000
852.76	-0.000
852.93	-0.000
853.10	-0.000
853.28	-0.000
853.45	-0.000
853.62	-0.000
853.79	-0.000
853.96	-0.000
854.14	-0.000
854.31	-0.000
854.48	-0.000
854.65	-0.000
854.82	-0.000
855.00	-0.000
855.17	-0.000
855.34	-0.000
855.51	-0.000
855.68	-0.000
855.86	-0.000
856.03	-0.000
856.20	-0.000
856.37	-0.000
856.54	-0.000
856.72	-0.000
856.89	-0.000
857.06	-0.000
857.23	-0.000
857.40	-0.000
857.57	-0.000
857.75	-0.000
857.92	-0.000
858.09	-0.000
858.26	-0.000
858.43	-0.000
858.60	-0.000
858.78	-0.000
858.95	-0.000
859.12	-0.000
859.29	-0.000
859.46	-0.000
859.63	-0.000
859.81	-0.000
859.98	-0.000
860.15	-0.000
860.32	-0.000
860.49	-0.000
860.66	-0.000
860.83	-0.000
861.01	-0.000
861.18	-0.000
861.35	-0.000
861.52	-0.000
861.69	-0.000
861.86	-0.000
862.03	-0.000
862.21	-0.000
862.38	-0.000
862.55	-0.000
862.72	-0.000
862.89	-0.000
863.06	-0.000
863.23	-0.000
863.40	-0.000
863.58	-0.000
863.75	-0.000
863.92	-0.000
864.09	-0.000
864.26	-0.000
864.43	-0.000
864.60	-0.000
864.77	-0.000
864.94	-0.000
865.11	-0.000
865.29	-0.000
865.46	-0.000
865.63	-0.000
865.80	-0.000
865.97	-0.000
866.14	-0.000
866.31	-0.000
866.48	-0.000
866.65	-0.000
866.82	-0.000
866.99	-0.000
867.16	-0.000
867.34	-0.000
867.51	-0.000
867.68	-0.000
867.85	-0.000
868.02	-0.000
868.19	-0.000
868.36	-0.000
868.53	-0.000
868.70	-0.000
868.87	-0.000
869.04	-0.000
869.21	-0.000
869.38	-0.000
869.55	-0.000
869.72	-0.000
869.89	-0.000
870.06	-0.000
870.24	-0.000
870.41	-0.000
870.58	-0.000
870.75	-0.000
870.92	-0.000
871.09	-0.000
871.26	-0.000
871.43	-0.000
871.60	-0.000
871.77	-0.000
871.94	-0.000
872.11	-0.000
872.28	-0.000
872.45	-0.000
872.62	-0.000
872.79	-0.000
872.96	-0.000
873.13	-0.000
873.30	-0.000
873.47	-0.000
873.64	-0.000
873.81	-0.000
873.98	-0.000
874.15	-0.000
874.32	-0.000
874.49	-0.000
874.66	-0.000
874.83	-0.000
875.00	-0.000
875.17	-0.000
875.34	-0.000
875.51	-0.000
875.68	-0.000
875.85	-0.000
876.02	-0.000
876.19	-0.000
876.36	-0.000
876.53	-0.000
876.70	-0.000
876.87	-0.000
877.04	-0.000
877.21	-0.000
877.38	-0.000
877.55	-0.000
877.72	-0.000
877.89	-0.000
878.06	-0.000
878.23	-0.000
878.39	-0.000
878.56	-0.000
878.73	-0.000
878.90	-0.000
879.07	-0.000
879.24	-0.000
879.41	-0.000
879.58	-0.000
879.75	-0.000
879.92	-0.000
880.09	-0.000
880.26	-0.000
880.43	-0.000
880.60	-0.000
880.77	-0.000
880.94	-0.000
881.11	-0.000
881.27	-0.000
881.44	-0.000
881.61	-0.000
881.78	-0.000
881.95	-0.000
882.12	-0.000
882.29	-0.000
882.46	-0.000
882.63	-0.000
882.80	-0.000
882.97	-0.000
883.14	-0.000
883.30	-0.000
883.47	-0.000
883.64	-0.000
883.81	-0.000
883.98	-0.000
884.15	-0.000
884.32	-0.000
884.49	-0.000
884.66	-0.000
884.82	-0.000
884.99	-0.000
885.16	-0.000
885.33	-0.000
885.50	-0.000
885.67	-0.000
885.84	-0.000
886.01	-0.000
886.17	-0.000
886.34	-0.000
886.51	-0.000
886.68	-0.000
886.85	-0.000
887.02	-0.000
887.19	-0.000
887.36	-0.000
887.52	-0.000
887.69	-0.000
887.86	-0.000
888.03	-0.000
888.20	-0.000
888.37	-0.000
888.54	-0.000
888.70	-0.000
888.87	-0.000
889.04	-0.000
889.21	-0.000
889.38	-0.000
889.55	-0.000
889.71	-0.000
889.88	-0.000
890.05	-0.000
890.22	-0.000
890.39	-0.000
>>>>>End Processed Spectral Data<<<<<
