SpectraSuite Data File
++++++++++++++++++++++++++++++++++++
Date: Fri Jun 19 16:59:00 CEST 2015
User: introlabs
Dark Spectrum Present: Yes
Reference Spectrum Present: Yes
Number of Sampled Component Spectra: 1
Spectrometers: USB4H08886
Integration Time (usec): 745692 (USB4H08886)
Spectra Averaged: 5 (USB4H08886)
Boxcar Smoothing: 5 (USB4H08886)
Correct for Electrical Dark: Yes (USB4H08886)
Strobe/Lamp Enabled: No (USB4H08886)
Correct for Detector Non-linearity: Yes (USB4H08886)
Correct for Stray Light: Yes (USB4H08886)
Number of Pixels in Processed Spectrum: 3648
>>>>>Begin Processed Spectral Data<<<<<
178.14	-0.000
178.36	-0.000
178.57	-0.000
178.79	-0.000
179.01	-0.000
179.22	-0.000
179.44	-0.000
179.65	-0.000
179.87	-0.000
180.08	-0.000
180.30	-0.000
180.52	-0.000
180.73	-0.000
180.95	-0.000
181.16	-0.000
181.38	-0.000
181.59	-0.000
181.81	-0.000
182.03	-0.000
182.24	-0.000
182.46	-0.000
182.67	-0.000
182.89	-0.000
183.10	-0.000
183.32	-0.000
183.54	-0.000
183.75	-0.000
183.97	-0.000
184.18	-0.000
184.40	-0.000
184.61	-0.000
184.83	-0.000
185.04	-0.000
185.26	-0.000
185.48	-0.000
185.69	-0.000
185.91	-0.000
186.12	-0.000
186.34	-0.000
186.55	-0.000
186.77	-0.000
186.98	-0.000
187.20	-0.000
187.42	-0.000
187.63	-0.000
187.85	-0.000
188.06	-0.000
188.28	-0.000
188.49	-0.000
188.71	-0.000
188.92	-0.000
189.14	-0.000
189.36	-0.000
189.57	-0.000
189.79	-0.000
190.00	-0.000
190.22	-0.000
190.43	-0.000
190.65	-0.000
190.86	-0.000
191.08	-0.000
191.29	-0.000
191.51	-0.000
191.72	-0.000
191.94	-0.000
192.16	-0.000
192.37	-0.000
192.59	-0.000
192.80	-0.000
193.02	-0.000
193.23	-0.000
193.45	-0.000
193.66	-0.000
193.88	-0.000
194.09	-0.000
194.31	-0.000
194.52	-0.000
194.74	-0.000
194.95	-0.000
195.17	-0.000
195.38	-0.000
195.60	-0.000
195.81	-0.000
196.03	-0.000
196.25	-0.000
196.46	-0.000
196.68	-0.000
196.89	-0.000
197.11	-0.000
197.32	-0.000
197.54	-0.000
197.75	-0.000
197.97	-0.000
198.18	-0.000
198.40	-0.000
198.61	-0.000
198.83	-0.000
199.04	-0.000
199.26	-0.000
199.47	-0.000
199.69	-0.000
199.90	-0.000
200.12	-0.000
200.33	-0.000
200.55	-0.000
200.76	-0.000
200.98	-0.000
201.19	-0.000
201.41	-0.000
201.62	-0.000
201.84	-0.000
202.05	-0.000
202.27	-0.000
202.48	-0.000
202.70	-0.000
202.91	-0.000
203.13	-0.000
203.34	-0.000
203.56	-0.000
203.77	-0.000
203.99	-0.000
204.20	-0.000
204.42	-0.000
204.63	-0.000
204.85	-0.000
205.06	-0.000
205.28	-0.000
205.49	-0.000
205.71	-0.000
205.92	-0.000
206.14	-0.000
206.35	-0.000
206.56	-0.000
206.78	-0.000
206.99	-0.000
207.21	-0.000
207.42	-0.000
207.64	-0.000
207.85	-0.000
208.07	-0.000
208.28	-0.000
208.50	-0.000
208.71	-0.000
208.93	-0.000
209.14	-0.000
209.36	-0.000
209.57	-0.000
209.79	-0.000
210.00	-0.000
210.22	-0.000
210.43	-0.000
210.64	-0.000
210.86	-0.000
211.07	-0.000
211.29	-0.000
211.50	-0.000
211.72	-0.000
211.93	-0.000
212.15	-0.000
212.36	-0.000
212.58	-0.000
212.79	-0.000
213.01	-0.000
213.22	-0.000
213.43	-0.000
213.65	-0.000
213.86	-0.000
214.08	-0.000
214.29	-0.000
214.51	-0.000
214.72	-0.000
214.94	-0.000
215.15	-0.000
215.36	-0.000
215.58	-0.000
215.79	-0.000
216.01	-0.000
216.22	-0.000
216.44	-0.000
216.65	-0.000
216.87	-0.000
217.08	-0.000
217.29	-0.000
217.51	-0.000
217.72	-0.000
217.94	-0.000
218.15	-0.000
218.37	-0.000
218.58	-0.000
218.80	-0.000
219.01	-0.000
219.22	-0.000
219.44	-0.000
219.65	-0.000
219.87	-0.000
220.08	-0.000
220.30	-0.000
220.51	-0.000
220.72	-0.000
220.94	-0.000
221.15	-0.000
221.37	-0.000
221.58	-0.000
221.79	-0.000
222.01	-0.000
222.22	-0.000
222.44	-0.000
222.65	-0.000
222.87	-0.000
223.08	-0.000
223.29	-0.000
223.51	-0.000
223.72	-0.000
223.94	-0.000
224.15	-0.000
224.36	-0.000
224.58	-0.000
224.79	-0.000
225.01	-0.000
225.22	-0.000
225.44	-0.000
225.65	-0.000
225.86	-0.000
226.08	-0.000
226.29	-0.000
226.51	-0.000
226.72	-0.000
226.93	-0.000
227.15	-0.000
227.36	-0.000
227.58	-0.000
227.79	-0.000
228.00	-0.000
228.22	-0.000
228.43	-0.000
228.65	-0.000
228.86	-0.000
229.07	-0.000
229.29	-0.000
229.50	-0.000
229.72	-0.000
229.93	-0.000
230.14	-0.000
230.36	-0.000
230.57	-0.000
230.78	-0.000
231.00	-0.000
231.21	-0.000
231.43	-0.000
231.64	-0.000
231.85	-0.000
232.07	-0.000
232.28	-0.000
232.50	-0.000
232.71	-0.000
232.92	-0.000
233.14	-0.000
233.35	-0.000
233.56	-0.000
233.78	-0.000
233.99	-0.000
234.21	-0.000
234.42	-0.000
234.63	-0.000
234.85	-0.000
235.06	-0.000
235.27	-0.000
235.49	-0.000
235.70	-0.000
235.91	-0.000
236.13	-0.000
236.34	-0.000
236.56	-0.000
236.77	-0.000
236.98	-0.000
237.20	-0.000
237.41	-0.000
237.62	-0.000
237.84	-0.000
238.05	-0.000
238.26	-0.000
238.48	-0.000
238.69	-0.000
238.91	-0.000
239.12	-0.000
239.33	-0.000
239.55	-0.000
239.76	-0.000
239.97	-0.000
240.19	-0.000
240.40	-0.000
240.61	-0.000
240.83	-0.000
241.04	-0.000
241.25	-0.000
241.47	-0.000
241.68	-0.000
241.89	-0.000
242.11	-0.000
242.32	-0.000
242.53	-0.000
242.75	-0.000
242.96	-0.000
243.17	-0.000
243.39	-0.000
243.60	-0.000
243.81	-0.000
244.03	-0.000
244.24	-0.000
244.45	-0.000
244.67	-0.000
244.88	-0.000
245.09	-0.000
245.31	-0.000
245.52	-0.000
245.73	-0.000
245.95	-0.000
246.16	-0.000
246.37	-0.000
246.59	-0.000
246.80	-0.000
247.01	-0.000
247.23	-0.000
247.44	-0.000
247.65	-0.000
247.87	-0.000
248.08	-0.000
248.29	-0.000
248.51	-0.000
248.72	-0.000
248.93	-0.000
249.15	-0.000
249.36	-0.000
249.57	-0.000
249.78	-0.000
250.00	-0.000
250.21	-0.000
250.42	-0.000
250.64	-0.000
250.85	-0.000
251.06	-0.000
251.28	-0.000
251.49	-0.000
251.70	-0.000
251.92	-0.000
252.13	-0.000
252.34	-0.000
252.55	-0.000
252.77	-0.000
252.98	-0.000
253.19	-0.000
253.41	-0.000
253.62	-0.000
253.83	-0.000
254.05	-0.000
254.26	-0.000
254.47	-0.000
254.68	-0.000
254.90	-0.000
255.11	-0.000
255.32	-0.000
255.54	-0.000
255.75	-0.000
255.96	-0.000
256.17	-0.000
256.39	-0.000
256.60	-0.000
256.81	-0.000
257.03	-0.000
257.24	-0.000
257.45	-0.000
257.66	-0.000
257.88	-0.000
258.09	-0.000
258.30	-0.000
258.51	-0.000
258.73	-0.000
258.94	-0.000
259.15	-0.000
259.37	-0.000
259.58	-0.000
259.79	-0.000
260.00	-0.000
260.22	-0.000
260.43	-0.000
260.64	-0.000
260.85	-0.000
261.07	-0.000
261.28	-0.000
261.49	-0.000
261.71	-0.000
261.92	-0.000
262.13	-0.000
262.34	-0.000
262.56	-0.000
262.77	-0.000
262.98	-0.000
263.19	-0.000
263.41	-0.000
263.62	-0.000
263.83	-0.000
264.04	-0.000
264.26	-0.000
264.47	-0.000
264.68	-0.000
264.89	-0.000
265.11	-0.000
265.32	-0.000
265.53	-0.000
265.74	-0.000
265.96	-0.000
266.17	-0.000
266.38	-0.000
266.59	-0.000
266.81	-0.000
267.02	-0.000
267.23	-0.000
267.44	-0.000
267.65	-0.000
267.87	-0.000
268.08	-0.000
268.29	-0.000
268.50	-0.000
268.72	-0.000
268.93	-0.000
269.14	-0.000
269.35	-0.000
269.57	-0.000
269.78	-0.000
269.99	-0.000
270.20	-0.000
270.41	-0.000
270.63	-0.000
270.84	-0.000
271.05	-0.000
271.26	-0.000
271.48	-0.000
271.69	-0.000
271.90	-0.000
272.11	-0.000
272.32	-0.000
272.54	-0.000
272.75	-0.000
272.96	-0.000
273.17	-0.000
273.39	-0.000
273.60	-0.000
273.81	-0.000
274.02	-0.000
274.23	-0.000
274.45	-0.000
274.66	-0.000
274.87	-0.000
275.08	-0.000
275.29	-0.000
275.51	-0.000
275.72	-0.000
275.93	-0.000
276.14	-0.000
276.35	-0.000
276.57	-0.000
276.78	-0.000
276.99	-0.000
277.20	-0.000
277.41	-0.000
277.63	-0.000
277.84	-0.000
278.05	-0.000
278.26	-0.000
278.47	-0.000
278.69	-0.000
278.90	-0.000
279.11	-0.000
279.32	-0.000
279.53	-0.000
279.74	-0.000
279.96	-0.000
280.17	-0.000
280.38	-0.000
280.59	-0.000
280.80	-0.000
281.02	-0.000
281.23	-0.000
281.44	-0.000
281.65	-0.000
281.86	-0.000
282.07	-0.000
282.29	-0.000
282.50	-0.000
282.71	-0.000
282.92	-0.000
283.13	-0.000
283.35	-0.000
283.56	-0.000
283.77	-0.000
283.98	-0.000
284.19	-0.000
284.40	-0.000
284.62	-0.000
284.83	-0.000
285.04	-0.000
285.25	-0.000
285.46	-0.000
285.67	-0.000
285.88	-0.000
286.10	-0.000
286.31	-0.000
286.52	-0.000
286.73	-0.000
286.94	-0.000
287.15	-0.000
287.37	-0.000
287.58	-0.000
287.79	-0.000
288.00	-0.000
288.21	-0.000
288.42	-0.000
288.63	-0.000
288.85	-0.000
289.06	-0.000
289.27	-0.000
289.48	-0.000
289.69	-0.000
289.90	-0.000
290.11	-0.000
290.33	-0.000
290.54	-0.000
290.75	-0.000
290.96	-0.000
291.17	-0.000
291.38	-0.000
291.59	-0.000
291.81	-0.000
292.02	-0.000
292.23	-0.000
292.44	-0.000
292.65	-0.000
292.86	-0.000
293.07	-0.000
293.28	-0.000
293.50	-0.000
293.71	-0.000
293.92	-0.000
294.13	-0.000
294.34	-0.000
294.55	-0.000
294.76	-0.000
294.97	-0.000
295.19	-0.000
295.40	-0.000
295.61	-0.000
295.82	-0.000
296.03	-0.000
296.24	-0.000
296.45	-0.000
296.66	-0.000
296.87	-0.000
297.09	-0.000
297.30	-0.000
297.51	-0.000
297.72	-0.000
297.93	-0.000
298.14	-0.000
298.35	-0.000
298.56	-0.000
298.77	-0.000
298.99	-0.000
299.20	-0.000
299.41	-0.000
299.62	-0.000
299.83	-0.000
300.04	-0.000
300.25	-0.000
300.46	-0.000
300.67	-0.000
300.88	-0.000
301.10	-0.000
301.31	-0.000
301.52	-0.000
301.73	-0.000
301.94	-0.000
302.15	-0.000
302.36	-0.000
302.57	-0.000
302.78	-0.000
302.99	-0.000
303.20	-0.000
303.41	-0.000
303.63	-0.000
303.84	-0.000
304.05	-0.000
304.26	-0.000
304.47	-0.000
304.68	-0.000
304.89	-0.000
305.10	-0.000
305.31	-0.000
305.52	-0.000
305.73	-0.000
305.94	-0.000
306.15	-0.000
306.37	-0.000
306.58	-0.000
306.79	-0.000
307.00	-0.000
307.21	-0.000
307.42	-0.000
307.63	-0.000
307.84	-0.000
308.05	-0.000
308.26	-0.000
308.47	-0.000
308.68	-0.000
308.89	-0.000
309.10	-0.000
309.31	-0.000
309.52	-0.000
309.73	-0.000
309.95	-0.000
310.16	-0.000
310.37	-0.000
310.58	-0.000
310.79	-0.000
311.00	-0.000
311.21	-0.000
311.42	-0.000
311.63	-0.000
311.84	-0.000
312.05	-0.000
312.26	-0.000
312.47	-0.000
312.68	-0.000
312.89	-0.000
313.10	-0.000
313.31	-0.000
313.52	-0.000
313.73	-0.000
313.94	-0.000
314.15	-0.000
314.36	-0.000
314.57	-0.000
314.78	-0.000
314.99	-0.000
315.21	-0.000
315.42	-0.000
315.63	-0.000
315.84	-0.000
316.05	-0.000
316.26	-0.000
316.47	-0.000
316.68	-0.000
316.89	-0.000
317.10	-0.000
317.31	-0.000
317.52	-0.000
317.73	-0.000
317.94	-0.000
318.15	-0.000
318.36	-0.000
318.57	-0.000
318.78	-0.000
318.99	-0.000
319.20	-0.000
319.41	-0.000
319.62	-0.000
319.83	-0.000
320.04	-0.000
320.25	-0.000
320.46	-0.000
320.67	-0.000
320.88	-0.000
321.09	-0.000
321.30	-0.000
321.51	-0.000
321.72	-0.000
321.93	-0.000
322.14	-0.000
322.35	-0.000
322.56	-0.000
322.77	-0.000
322.98	-0.000
323.19	-0.000
323.40	-0.000
323.61	-0.000
323.82	-0.000
324.03	-0.000
324.24	-0.000
324.45	-0.000
324.66	-0.000
324.87	-0.000
325.08	-0.000
325.29	-0.000
325.50	-0.000
325.71	-0.000
325.92	-0.000
326.13	-0.000
326.34	-0.000
326.55	-0.000
326.76	-0.000
326.97	-0.000
327.18	-0.000
327.39	-0.000
327.60	-0.000
327.80	-0.000
328.01	-0.000
328.22	-0.000
328.43	-0.000
328.64	-0.000
328.85	-0.000
329.06	-0.000
329.27	-0.000
329.48	-0.000
329.69	-0.000
329.90	-0.000
330.11	-0.000
330.32	-0.000
330.53	-0.000
330.74	-0.000
330.95	-0.000
331.16	-0.000
331.37	-0.000
331.58	-0.000
331.79	-0.000
332.00	-0.000
332.21	-0.000
332.42	-0.000
332.63	-0.000
332.83	-0.000
333.04	-0.000
333.25	-0.000
333.46	-0.000
333.67	-0.000
333.88	-0.000
334.09	-0.000
334.30	-0.000
334.51	-0.000
334.72	-0.000
334.93	-0.000
335.14	-0.000
335.35	-0.000
335.56	-0.000
335.77	-0.000
335.98	-0.000
336.18	-0.000
336.39	-0.000
336.60	-0.000
336.81	-0.000
337.02	-0.000
337.23	-0.000
337.44	-0.000
337.65	-0.000
337.86	-0.000
338.07	-0.000
338.28	-0.000
338.49	-0.000
338.70	-0.000
338.91	-0.000
339.11	-0.000
339.32	-0.000
339.53	-0.000
339.74	-0.000
339.95	-0.000
340.16	-0.000
340.37	-0.000
340.58	-0.000
340.79	-0.000
341.00	-0.000
341.21	-0.000
341.41	-0.000
341.62	-0.000
341.83	-0.000
342.04	-0.000
342.25	-0.000
342.46	-0.000
342.67	-0.000
342.88	-0.000
343.09	-0.000
343.30	-0.000
343.50	-0.000
343.71	-0.000
343.92	-0.000
344.13	-0.000
344.34	-0.000
344.55	-0.000
344.76	-0.000
344.97	-0.000
345.18	-0.000
345.38	-0.000
345.59	-0.000
345.80	-0.000
346.01	-0.000
346.22	-0.000
346.43	-0.000
346.64	-0.000
346.85	-0.000
347.06	-0.000
347.26	-0.000
347.47	-0.000
347.68	-0.000
347.89	-0.000
348.10	-0.000
348.31	-0.000
348.52	-0.000
348.73	-0.000
348.93	-0.000
349.14	-0.000
349.35	-0.000
349.56	-0.000
349.77	-0.000
349.98	-0.000
350.19	-0.000
350.39	-0.000
350.60	-0.000
350.81	-0.000
351.02	-0.000
351.23	-0.000
351.44	-0.000
351.65	-0.000
351.86	-0.000
352.06	-0.000
352.27	-0.000
352.48	-0.000
352.69	-0.000
352.90	-0.000
353.11	3.003
353.31	-0.000
353.52	-0.000
353.73	3.111
353.94	3.894
354.15	-0.000
354.36	-0.000
354.57	3.143
354.77	-0.000
354.98	-0.000
355.19	-0.000
355.40	-0.000
355.61	-0.000
355.82	-0.000
356.02	-0.000
356.23	-0.000
356.44	-0.000
356.65	-0.000
356.86	-0.000
357.07	-0.000
357.27	-0.000
357.48	-0.000
357.69	-0.000
357.90	2.308
358.11	2.233
358.32	2.288
358.52	2.367
358.73	2.175
358.94	2.250
359.15	2.406
359.36	2.414
359.56	2.356
359.77	2.319
359.98	2.569
360.19	2.595
360.40	2.541
360.61	2.709
360.81	2.572
361.02	2.569
361.23	2.313
361.44	2.253
361.65	2.255
361.85	2.241
362.06	2.245
362.27	2.301
362.48	2.298
362.69	2.328
362.89	2.192
363.10	2.276
363.31	2.397
363.52	2.544
363.73	2.348
363.93	2.381
364.14	2.414
364.35	2.422
364.56	2.191
364.77	2.186
364.97	2.218
365.18	2.206
365.39	2.126
365.60	2.071
365.81	2.067
366.01	2.080
366.22	2.032
366.43	2.012
366.64	2.014
366.84	2.105
367.05	2.091
367.26	2.084
367.47	2.130
367.68	2.113
367.88	2.078
368.09	2.043
368.30	2.063
368.51	2.068
368.71	2.079
368.92	2.188
369.13	2.140
369.34	2.152
369.55	2.158
369.75	2.133
369.96	2.260
370.17	2.278
370.38	2.235
370.58	2.224
370.79	2.323
371.00	2.276
371.21	2.110
371.41	2.201
371.62	2.256
371.83	2.177
372.04	2.141
372.24	2.034
372.45	2.031
372.66	2.027
372.87	2.011
373.07	1.970
373.28	1.978
373.49	2.023
373.70	1.901
373.90	1.883
374.11	1.978
374.32	1.973
374.53	1.974
374.73	1.984
374.94	1.995
375.15	1.978
375.36	1.952
375.56	2.096
375.77	2.070
375.98	2.071
376.19	2.041
376.39	1.962
376.60	1.998
376.81	1.987
377.02	1.971
377.22	1.967
377.43	1.966
377.64	1.968
377.84	1.854
378.05	1.906
378.26	1.982
378.47	1.974
378.67	1.941
378.88	1.911
379.09	1.911
379.30	1.901
379.50	1.882
379.71	1.898
379.92	1.918
380.12	1.915
380.33	1.844
380.54	1.799
380.75	1.870
380.95	1.864
381.16	1.858
381.37	1.862
381.57	1.879
381.78	1.890
381.99	1.897
382.20	1.895
382.40	1.931
382.61	1.924
382.82	1.903
383.02	1.831
383.23	1.864
383.44	1.860
383.64	1.852
383.85	1.876
384.06	1.897
384.27	1.867
384.47	1.855
384.68	1.849
384.89	1.912
385.09	1.908
385.30	1.900
385.51	1.884
385.71	1.912
385.92	1.912
386.13	1.900
386.33	1.943
386.54	1.948
386.75	1.931
386.95	1.894
387.16	1.842
387.37	1.858
387.58	1.854
387.78	1.833
387.99	1.809
388.20	1.817
388.40	1.788
388.61	1.741
388.82	1.777
389.02	1.787
389.23	1.785
389.44	1.778
389.64	1.784
389.85	1.906
390.06	1.902
390.26	1.915
390.47	1.910
390.68	1.939
390.88	1.927
391.09	1.867
391.30	1.865
391.50	1.861
391.71	1.856
391.92	1.829
392.12	1.743
392.33	1.743
392.53	1.738
392.74	1.749
392.95	1.732
393.15	1.746
393.36	1.761
393.57	1.752
393.77	1.776
393.98	1.787
394.19	1.783
394.39	1.786
394.60	1.798
394.81	1.814
395.01	1.790
395.22	1.784
395.43	1.785
395.63	1.831
395.84	1.836
396.04	1.807
396.25	1.812
396.46	1.822
396.66	1.798
396.87	1.780
397.08	1.754
397.28	1.770
397.49	1.776
397.69	1.753
397.90	1.703
398.11	1.707
398.31	1.709
398.52	1.688
398.73	1.707
398.93	1.700
399.14	1.695
399.34	1.694
399.55	1.701
399.76	1.704
399.96	1.709
400.17	1.705
400.37	1.696
400.58	1.755
400.79	1.772
400.99	1.743
401.20	1.795
401.41	1.809
401.61	1.810
401.82	1.878
402.02	1.867
402.23	1.873
402.44	1.868
402.64	1.870
402.85	1.795
403.05	1.775
403.26	1.768
403.47	1.719
403.67	1.710
403.88	1.708
404.08	1.656
404.29	1.648
404.50	1.650
404.70	1.645
404.91	1.640
405.11	1.629
405.32	1.634
405.52	1.633
405.73	1.630
405.94	1.626
406.14	1.647
406.35	1.656
406.55	1.656
406.76	1.639
406.97	1.650
407.17	1.666
407.38	1.668
407.58	1.661
407.79	1.679
407.99	1.694
408.20	1.692
408.41	1.665
408.61	1.650
408.82	1.650
409.02	1.653
409.23	1.645
409.43	1.634
409.64	1.633
409.84	1.633
410.05	1.614
410.26	1.601
410.46	1.602
410.67	1.601
410.87	1.620
411.08	1.634
411.28	1.636
411.49	1.644
411.69	1.631
411.90	1.645
412.11	1.650
412.31	1.653
412.52	1.647
412.72	1.648
412.93	1.649
413.13	1.644
413.34	1.626
413.54	1.643
413.75	1.657
413.95	1.658
414.16	1.641
414.37	1.662
414.57	1.664
414.78	1.682
414.98	1.677
415.19	1.687
415.39	1.656
415.60	1.670
415.80	1.662
416.01	1.645
416.21	1.652
416.42	1.654
416.62	1.621
416.83	1.624
417.03	1.620
417.24	1.620
417.44	1.605
417.65	1.605
417.86	1.607
418.06	1.593
418.27	1.584
418.47	1.595
418.68	1.594
418.88	1.595
419.09	1.587
419.29	1.591
419.50	1.593
419.70	1.596
419.91	1.592
420.11	1.578
420.32	1.592
420.52	1.592
420.73	1.589
420.93	1.596
421.14	1.611
421.34	1.608
421.55	1.594
421.75	1.595
421.96	1.598
422.16	1.601
422.37	1.600
422.57	1.586
422.78	1.591
422.98	1.574
423.19	1.567
423.39	1.557
423.60	1.578
423.80	1.582
424.01	1.576
424.21	1.594
424.42	1.594
424.62	1.593
424.83	1.591
425.03	1.591
425.23	1.598
425.44	1.595
425.64	1.597
425.85	1.587
426.05	1.589
426.26	1.593
426.46	1.570
426.67	1.568
426.87	1.596
427.08	1.596
427.28	1.588
427.49	1.597
427.69	1.599
427.90	1.593
428.10	1.578
428.31	1.580
428.51	1.589
428.71	1.586
428.92	1.597
429.12	1.579
429.33	1.581
429.53	1.613
429.74	1.651
429.94	1.659
430.15	1.655
430.35	1.653
430.56	1.637
430.76	1.629
430.96	1.633
431.17	1.616
431.37	1.606
431.58	1.599
431.78	1.573
431.99	1.526
432.19	1.544
432.40	1.556
432.60	1.562
432.80	1.580
433.01	1.572
433.21	1.572
433.42	1.581
433.62	1.580
433.83	1.580
434.03	1.598
434.23	1.613
434.44	1.599
434.64	1.586
434.85	1.618
435.05	1.627
435.26	1.629
435.46	1.625
435.66	1.622
435.87	1.620
436.07	1.621
436.28	1.597
436.48	1.585
436.69	1.584
436.89	1.586
437.09	1.547
437.30	1.539
437.50	1.538
437.71	1.627
437.91	1.626
438.11	1.636
438.32	1.664
438.52	1.661
438.73	1.658
438.93	1.646
439.13	1.644
439.34	1.675
439.54	1.659
439.75	1.666
439.95	1.582
440.15	1.615
440.36	1.609
440.56	1.592
440.77	1.600
440.97	1.601
441.17	1.593
441.38	1.602
441.58	1.582
441.79	1.581
441.99	1.575
442.19	1.561
442.40	1.540
442.60	1.540
442.81	1.531
443.01	1.532
443.21	1.532
443.42	1.532
443.62	1.523
443.82	1.525
444.03	1.534
444.23	1.534
444.44	1.540
444.64	1.541
444.84	1.549
445.05	1.551
445.25	1.541
445.45	1.542
445.66	1.551
445.86	1.550
446.06	1.560
446.27	1.553
446.47	1.569
446.68	1.558
446.88	1.549
447.08	1.543
447.29	1.549
447.49	1.550
447.69	1.551
447.90	1.545
448.10	1.562
448.30	1.546
448.51	1.561
448.71	1.546
448.91	1.559
449.12	1.557
449.32	1.572
449.52	1.566
449.73	1.587
449.93	1.581
450.14	1.594
450.34	1.590
450.54	1.605
450.75	1.587
450.95	1.585
451.15	1.582
451.36	1.597
451.56	1.578
451.76	1.576
451.97	1.560
452.17	1.562
452.37	1.546
452.58	1.534
452.78	1.528
452.98	1.538
453.19	1.541
453.39	1.548
453.59	1.536
453.79	1.538
454.00	1.544
454.20	1.539
454.40	1.545
454.61	1.560
454.81	1.561
455.01	1.557
455.22	1.567
455.42	1.572
455.62	1.557
455.83	1.557
456.03	1.575
456.23	1.573
456.44	1.577
456.64	1.570
456.84	1.565
457.04	1.567
457.25	1.565
457.45	1.546
457.65	1.540
457.86	1.549
458.06	1.544
458.26	1.523
458.47	1.519
458.67	1.523
458.87	1.526
459.07	1.517
459.28	1.526
459.48	1.536
459.68	1.537
459.89	1.531
460.09	1.523
460.29	1.528
460.49	1.536
460.70	1.539
460.90	1.538
461.10	1.539
461.31	1.540
461.51	1.528
461.71	1.546
461.91	1.549
462.12	1.555
462.32	1.555
462.52	1.555
462.72	1.567
462.93	1.564
463.13	1.554
463.33	1.561
463.53	1.565
463.74	1.564
463.94	1.532
464.14	1.541
464.35	1.546
464.55	1.544
464.75	1.540
464.95	1.527
465.16	1.535
465.36	1.535
465.56	1.530
465.76	1.527
465.97	1.531
466.17	1.535
466.37	1.523
466.57	1.525
466.78	1.532
466.98	1.534
467.18	1.527
467.38	1.523
467.59	1.529
467.79	1.542
467.99	1.539
468.19	1.540
468.39	1.552
468.60	1.553
468.80	1.541
469.00	1.546
469.20	1.547
469.41	1.548
469.61	1.545
469.81	1.545
470.01	1.540
470.22	1.541
470.42	1.536
470.62	1.526
470.82	1.533
471.02	1.533
471.23	1.521
471.43	1.522
471.63	1.537
471.83	1.537
472.04	1.529
472.24	1.517
472.44	1.548
472.64	1.548
472.84	1.542
473.05	1.537
473.25	1.546
473.45	1.545
473.65	1.539
473.85	1.535
474.06	1.534
474.26	1.532
474.46	1.546
474.66	1.521
474.86	1.523
475.07	1.522
475.27	1.518
475.47	1.508
475.67	1.507
475.87	1.520
476.08	1.506
476.28	1.517
476.48	1.530
476.68	1.518
476.88	1.508
477.09	1.510
477.29	1.516
477.49	1.516
477.69	1.512
477.89	1.516
478.09	1.506
478.30	1.521
478.50	1.508
478.70	1.497
478.90	1.496
479.10	1.513
479.31	1.523
479.51	1.514
479.71	1.514
479.91	1.514
480.11	1.507
480.31	1.508
480.52	1.497
480.72	1.494
480.92	1.490
481.12	1.485
481.32	1.470
481.52	1.458
481.72	1.457
481.93	1.475
482.13	1.479
482.33	1.477
482.53	1.468
482.73	1.474
482.93	1.479
483.14	1.479
483.34	1.478
483.54	1.483
483.74	1.478
483.94	1.474
484.14	1.452
484.34	1.451
484.55	1.451
484.75	1.451
484.95	1.442
485.15	1.441
485.35	1.442
485.55	1.440
485.75	1.433
485.96	1.436
486.16	1.443
486.36	1.443
486.56	1.439
486.76	1.442
486.96	1.446
487.16	1.446
487.36	1.440
487.57	1.439
487.77	1.441
487.97	1.444
488.17	1.437
488.37	1.435
488.57	1.436
488.77	1.437
488.97	1.431
489.18	1.426
489.38	1.436
489.58	1.436
489.78	1.436
489.98	1.432
490.18	1.431
490.38	1.434
490.58	1.428
490.78	1.432
490.98	1.434
491.19	1.436
491.39	1.435
491.59	1.427
491.79	1.440
491.99	1.441
492.19	1.444
492.39	1.458
492.59	1.457
492.79	1.468
492.99	1.469
493.20	1.470
493.40	1.468
493.60	1.474
493.80	1.471
494.00	1.459
494.20	1.459
494.40	1.456
494.60	1.445
494.80	1.468
495.00	1.461
495.20	1.455
495.40	1.452
495.61	1.459
495.81	1.459
496.01	1.479
496.21	1.487
496.41	1.486
496.61	1.490
496.81	1.486
497.01	1.461
497.21	1.458
497.41	1.460
497.61	1.457
497.81	1.450
498.01	1.449
498.21	1.433
498.41	1.422
498.61	1.420
498.82	1.425
499.02	1.430
499.22	1.431
499.42	1.431
499.62	1.436
499.82	1.440
500.02	1.444
500.22	1.437
500.42	1.448
500.62	1.451
500.82	1.451
501.02	1.441
501.22	1.442
501.42	1.442
501.62	1.451
501.82	1.448
502.02	1.448
502.22	1.445
502.42	1.457
502.62	1.445
502.82	1.446
503.02	1.451
503.22	1.452
503.42	1.446
503.63	1.445
503.83	1.435
504.03	1.432
504.23	1.428
504.43	1.433
504.63	1.437
504.83	1.436
505.03	1.432
505.23	1.438
505.43	1.445
505.63	1.448
505.83	1.448
506.03	1.453
506.23	1.461
506.43	1.460
506.63	1.455
506.83	1.445
507.03	1.454
507.23	1.456
507.43	1.445
507.63	1.445
507.83	1.445
508.03	1.447
508.23	1.446
508.43	1.439
508.63	1.446
508.83	1.447
509.03	1.456
509.23	1.450
509.43	1.452
509.63	1.455
509.83	1.450
510.03	1.463
510.23	1.465
510.43	1.469
510.63	1.470
510.83	1.469
511.03	1.474
511.23	1.461
511.43	1.460
511.63	1.466
511.83	1.473
512.03	1.472
512.22	1.458
512.42	1.459
512.62	1.466
512.82	1.466
513.02	1.463
513.22	1.461
513.42	1.470
513.62	1.485
513.82	1.476
514.02	1.473
514.22	1.478
514.42	1.479
514.62	1.478
514.82	1.472
515.02	1.481
515.22	1.500
515.42	1.498
515.62	1.507
515.82	1.498
516.02	1.501
516.22	1.505
516.42	1.514
516.62	1.518
516.82	1.524
517.01	1.518
517.21	1.513
517.41	1.535
517.61	1.537
517.81	1.521
518.01	1.519
518.21	1.519
518.41	1.512
518.61	1.504
518.81	1.507
519.01	1.507
519.21	1.508
519.41	1.506
519.61	1.470
519.81	1.482
520.00	1.484
520.20	1.486
520.40	1.499
520.60	1.498
520.80	1.493
521.00	1.498
521.20	1.500
521.40	1.524
521.60	1.524
521.80	1.520
522.00	1.515
522.20	1.520
522.39	1.516
522.59	1.502
522.79	1.513
522.99	1.521
523.19	1.511
523.39	1.507
523.59	1.494
523.79	1.506
523.99	1.517
524.19	1.512
524.38	1.505
524.58	1.512
524.78	1.510
524.98	1.496
525.18	1.510
525.38	1.513
525.58	1.513
525.78	1.503
525.98	1.494
526.18	1.492
526.37	1.492
526.57	1.501
526.77	1.498
526.97	1.500
527.17	1.504
527.37	1.484
527.57	1.494
527.77	1.497
527.96	1.500
528.16	1.495
528.36	1.505
528.56	1.513
528.76	1.504
528.96	1.506
529.16	1.511
529.36	1.522
529.55	1.523
529.75	1.509
529.95	1.509
530.15	1.508
530.35	1.525
530.55	1.506
530.75	1.504
530.94	1.506
531.14	1.507
531.34	1.502
531.54	1.495
531.74	1.506
531.94	1.523
532.13	1.517
532.33	1.533
532.53	1.521
532.73	1.524
532.93	1.514
533.13	1.519
533.33	1.514
533.52	1.516
533.72	1.539
533.92	1.531
534.12	1.519
534.32	1.520
534.52	1.507
534.71	1.515
534.91	1.523
535.11	1.539
535.31	1.532
535.51	1.545
535.71	1.547
535.90	1.524
536.10	1.531
536.30	1.539
536.50	1.541
536.70	1.545
536.89	1.533
537.09	1.532
537.29	1.534
537.49	1.537
537.69	1.524
537.89	1.531
538.08	1.528
538.28	1.518
538.48	1.522
538.68	1.529
538.88	1.539
539.07	1.540
539.27	1.531
539.47	1.524
539.67	1.523
539.87	1.530
540.06	1.519
540.26	1.524
540.46	1.532
540.66	1.518
540.86	1.510
541.05	1.503
541.25	1.508
541.45	1.508
541.65	1.499
541.84	1.509
542.04	1.510
542.24	1.511
542.44	1.506
542.64	1.513
542.83	1.522
543.03	1.524
543.23	1.519
543.43	1.521
543.62	1.531
543.82	1.530
544.02	1.522
544.22	1.520
544.42	1.536
544.61	1.537
544.81	1.523
545.01	1.514
545.21	1.519
545.40	1.517
545.60	1.508
545.80	1.522
546.00	1.524
546.19	1.522
546.39	1.518
546.59	1.504
546.79	1.511
546.98	1.512
547.18	1.514
547.38	1.516
547.58	1.527
547.77	1.528
547.97	1.506
548.17	1.512
548.37	1.512
548.56	1.515
548.76	1.515
548.96	1.518
549.16	1.525
549.35	1.525
549.55	1.516
549.75	1.516
549.95	1.530
550.14	1.530
550.34	1.523
550.54	1.548
550.73	1.564
550.93	1.569
551.13	1.558
551.33	1.550
551.52	1.552
551.72	1.551
551.92	1.539
552.12	1.546
552.31	1.547
552.51	1.549
552.71	1.521
552.90	1.521
553.10	1.523
553.30	1.524
553.50	1.526
553.69	1.529
553.89	1.533
554.09	1.535
554.28	1.515
554.48	1.524
554.68	1.530
554.87	1.533
555.07	1.521
555.27	1.517
555.47	1.520
555.66	1.520
555.86	1.515
556.06	1.525
556.25	1.534
556.45	1.588
556.65	1.582
556.84	1.604
557.04	1.623
557.24	1.626
557.43	1.628
557.63	1.653
557.83	1.662
558.02	1.667
558.22	1.701
558.42	1.700
558.61	1.635
558.81	1.631
559.01	1.604
559.21	1.597
559.40	1.595
559.60	1.598
559.80	1.571
559.99	1.574
560.19	1.576
560.39	1.540
560.58	1.530
560.78	1.534
560.97	1.553
561.17	1.548
561.37	1.542
561.56	1.552
561.76	1.558
561.96	1.560
562.15	1.552
562.35	1.571
562.55	1.569
562.74	1.574
562.94	1.567
563.14	1.552
563.33	1.557
563.53	1.555
563.73	1.541
563.92	1.546
564.12	1.552
564.31	1.559
564.51	1.548
564.71	1.565
564.90	1.567
565.10	1.568
565.30	1.593
565.49	1.595
565.69	1.603
565.89	1.608
566.08	1.590
566.28	1.601
566.47	1.606
566.67	1.590
566.87	1.574
567.06	1.590
567.26	1.629
567.46	1.597
567.65	1.591
567.85	1.601
568.04	1.614
568.24	1.607
568.44	1.589
568.63	1.582
568.83	1.591
569.02	1.584
569.22	1.561
569.42	1.538
569.61	1.549
569.81	1.543
570.00	1.534
570.20	1.540
570.40	1.549
570.59	1.550
570.79	1.539
570.98	1.524
571.18	1.529
571.38	1.525
571.57	1.513
571.77	1.502
571.96	1.519
572.16	1.509
572.35	1.485
572.55	1.491
572.75	1.483
572.94	1.484
573.14	1.480
573.33	1.480
573.53	1.481
573.73	1.477
573.92	1.472
574.12	1.463
574.31	1.473
574.51	1.474
574.70	1.456
574.90	1.462
575.09	1.473
575.29	1.474
575.49	1.464
575.68	1.471
575.88	1.476
576.07	1.482
576.27	1.472
576.46	1.463
576.66	1.460
576.86	1.460
577.05	1.455
577.25	1.448
577.44	1.455
577.64	1.455
577.83	1.448
578.03	1.448
578.22	1.443
578.42	1.441
578.61	1.436
578.81	1.441
579.00	1.442
579.20	1.438
579.40	1.436
579.59	1.428
579.79	1.430
579.98	1.428
580.18	1.433
580.37	1.436
580.57	1.447
580.76	1.473
580.96	1.465
581.15	1.469
581.35	1.474
581.54	1.472
581.74	1.471
581.93	1.478
582.13	1.481
582.32	1.467
582.52	1.459
582.71	1.454
582.91	1.431
583.10	1.434
583.30	1.431
583.49	1.429
583.69	1.444
583.88	1.450
584.08	1.443
584.27	1.454
584.47	1.463
584.66	1.465
584.86	1.461
585.05	1.468
585.25	1.478
585.44	1.475
585.64	1.472
585.83	1.459
586.03	1.463
586.22	1.461
586.42	1.446
586.61	1.459
586.81	1.472
587.00	1.472
587.20	1.462
587.39	1.464
587.59	1.470
587.78	1.473
587.98	1.474
588.17	1.475
588.37	1.484
588.56	1.491
588.76	1.469
588.95	1.466
589.15	1.489
589.34	1.502
589.54	1.494
589.73	1.496
589.92	1.508
590.12	1.506
590.31	1.497
590.51	1.526
590.70	1.532
590.90	1.537
591.09	1.528
591.29	1.511
591.48	1.505
591.68	1.509
591.87	1.505
592.06	1.503
592.26	1.519
592.45	1.515
592.65	1.482
592.84	1.482
593.04	1.492
593.23	1.503
593.43	1.497
593.62	1.497
593.81	1.503
594.01	1.502
594.20	1.494
594.40	1.484
594.59	1.491
594.79	1.494
594.98	1.487
595.17	1.481
595.37	1.481
595.56	1.487
595.76	1.486
595.95	1.490
596.14	1.499
596.34	1.503
596.53	1.497
596.73	1.502
596.92	1.503
597.12	1.514
597.31	1.517
597.50	1.509
597.70	1.518
597.89	1.513
598.09	1.498
598.28	1.504
598.47	1.521
598.67	1.516
598.86	1.503
599.06	1.520
599.25	1.520
599.44	1.513
599.64	1.506
599.83	1.500
600.03	1.518
600.22	1.521
600.41	1.528
600.61	1.511
600.80	1.522
601.00	1.524
601.19	1.504
601.38	1.495
601.58	1.504
601.77	1.508
601.96	1.518
602.16	1.512
602.35	1.561
602.55	1.540
602.74	1.542
602.93	1.548
603.13	1.570
603.32	1.574
603.51	1.576
603.71	1.590
603.90	1.594
604.09	1.598
604.29	1.585
604.48	1.548
604.68	1.554
604.87	1.548
605.06	1.535
605.26	1.519
605.45	1.520
605.64	1.515
605.84	1.495
606.03	1.494
606.22	1.484
606.42	1.482
606.61	1.470
606.80	1.471
607.00	1.484
607.19	1.485
607.38	1.486
607.58	1.495
607.77	1.505
607.96	1.505
608.16	1.503
608.35	1.534
608.54	1.555
608.74	1.571
608.93	1.610
609.12	1.620
609.32	1.635
609.51	1.646
609.70	1.632
609.90	1.643
610.09	1.669
610.28	1.704
610.48	1.652
610.67	1.653
610.86	1.654
611.06	1.606
611.25	1.592
611.44	1.594
611.64	1.592
611.83	1.617
612.02	1.600
612.21	1.592
612.41	1.578
612.60	1.576
612.79	1.557
612.99	1.557
613.18	1.569
613.37	1.560
613.57	1.551
613.76	1.562
613.95	1.542
614.14	1.539
614.34	1.530
614.53	1.533
614.72	1.547
614.92	1.549
615.11	1.536
615.30	1.521
615.49	1.532
615.69	1.547
615.88	1.533
616.07	1.542
616.26	1.558
616.46	1.564
616.65	1.552
616.84	1.546
617.04	1.548
617.23	1.564
617.42	1.565
617.61	1.576
617.81	1.568
618.00	1.576
618.19	1.567
618.38	1.586
618.58	1.604
618.77	1.611
618.96	1.606
619.15	1.625
619.35	1.634
619.54	1.638
619.73	1.615
619.92	1.626
620.12	1.648
620.31	1.652
620.50	1.615
620.69	1.612
620.89	1.626
621.08	1.630
621.27	1.627
621.46	1.620
621.66	1.644
621.85	1.640
622.04	1.624
622.23	1.634
622.43	1.637
622.62	1.642
622.81	1.636
623.00	1.638
623.19	1.652
623.39	1.642
623.58	1.627
623.77	1.622
623.96	1.639
624.16	1.643
624.35	1.616
624.54	1.632
624.73	1.649
624.92	1.642
625.12	1.627
625.31	1.635
625.50	1.652
625.69	1.656
625.88	1.640
626.08	1.636
626.27	1.638
626.46	1.638
626.65	1.618
626.84	1.613
627.04	1.639
627.23	1.640
627.42	1.615
627.61	1.625
627.80	1.633
628.00	1.637
628.19	1.631
628.38	1.651
628.57	1.657
628.76	1.660
628.96	1.643
629.15	1.650
629.34	1.668
629.53	1.669
629.72	1.639
629.91	1.646
630.11	1.657
630.30	1.657
630.49	1.682
630.68	1.685
630.87	1.701
631.06	1.719
631.26	1.682
631.45	1.688
631.64	1.755
631.83	1.764
632.02	1.748
632.21	1.742
632.41	1.793
632.60	1.734
632.79	1.724
632.98	1.726
633.17	1.733
633.36	1.743
633.55	1.732
633.75	1.693
633.94	1.693
634.13	1.697
634.32	1.694
634.51	1.657
634.70	1.671
634.89	1.670
635.09	1.653
635.28	1.649
635.47	1.655
635.66	1.669
635.85	1.651
636.04	1.667
636.23	1.699
636.43	1.697
636.62	1.701
636.81	1.695
637.00	1.708
637.19	1.729
637.38	1.719
637.57	1.726
637.76	1.737
637.95	1.736
638.15	1.718
638.34	1.690
638.53	1.711
638.72	1.711
638.91	1.697
639.10	1.687
639.29	1.680
639.48	1.688
639.67	1.688
639.87	1.680
640.06	1.730
640.25	1.728
640.44	1.736
640.63	1.747
640.82	1.759
641.01	1.774
641.20	1.784
641.39	1.810
641.58	1.817
641.78	1.802
641.97	1.774
642.16	1.922
642.35	1.908
642.54	1.900
642.73	1.855
642.92	1.853
643.11	1.872
643.30	1.871
643.49	1.824
643.68	1.856
643.87	1.858
644.06	1.854
644.25	1.677
644.45	1.718
644.64	1.725
644.83	1.725
645.02	1.715
645.21	1.706
645.40	1.705
645.59	1.709
645.78	1.668
645.97	1.688
646.16	1.682
646.35	1.676
646.54	1.659
646.73	1.675
646.92	1.685
647.11	1.675
647.30	1.659
647.49	1.677
647.68	1.678
647.88	1.677
648.07	1.650
648.26	1.685
648.45	1.688
648.64	1.675
648.83	1.655
649.02	1.680
649.21	1.777
649.40	1.775
649.59	1.737
649.78	1.741
649.97	1.894
650.16	1.873
650.35	1.810
650.54	1.864
650.73	1.958
650.92	1.924
651.11	1.851
651.30	1.821
651.49	1.851
651.68	1.859
651.87	1.834
652.06	1.715
652.25	1.737
652.44	1.750
652.63	1.703
652.82	1.692
653.01	1.684
653.20	1.672
653.39	1.600
653.58	1.593
653.77	1.594
653.96	1.576
654.15	1.540
654.34	1.535
654.53	1.524
654.72	1.504
654.91	1.466
655.10	1.453
655.29	1.446
655.48	1.438
655.67	1.418
655.86	1.409
656.05	1.405
656.24	1.406
656.43	1.390
656.62	1.393
656.81	1.405
657.00	1.401
657.19	1.397
657.38	1.402
657.57	1.406
657.76	1.420
657.95	1.416
658.14	1.435
658.33	1.451
658.51	1.475
658.70	1.469
658.89	1.461
659.08	1.498
659.27	1.527
659.46	1.523
659.65	1.551
659.84	1.569
660.03	1.585
660.22	1.586
660.41	1.612
660.60	1.612
660.79	1.626
660.98	1.678
661.17	1.661
661.36	1.656
661.55	1.667
661.74	1.648
661.92	1.662
662.11	1.672
662.30	1.662
662.49	1.616
662.68	1.608
662.87	1.618
663.06	1.574
663.25	1.589
663.44	1.587
663.63	1.586
663.82	1.583
664.01	1.552
664.20	1.543
664.38	1.553
664.57	1.556
664.76	1.564
664.95	1.574
665.14	1.600
665.33	1.574
665.52	1.643
665.71	1.689
665.90	1.695
666.09	1.715
666.28	1.706
666.46	1.681
666.65	1.684
666.84	1.669
667.03	1.637
667.22	1.631
667.41	1.656
667.60	1.580
667.79	1.535
667.98	1.539
668.16	1.544
668.35	1.543
668.54	1.533
668.73	1.542
668.92	1.549
669.11	1.545
669.30	1.518
669.49	1.498
669.67	1.513
669.86	1.531
670.05	1.520
670.24	1.506
670.43	1.504
670.62	1.505
670.81	1.481
671.00	1.481
671.18	1.477
671.37	1.477
671.56	1.469
671.75	1.460
671.94	1.444
672.13	1.438
672.32	1.421
672.50	1.419
672.69	1.417
672.88	1.420
673.07	1.406
673.26	1.416
673.45	1.417
673.63	1.418
673.82	1.409
674.01	1.417
674.20	1.414
674.39	1.414
674.58	1.412
674.76	1.417
674.95	1.417
675.14	1.418
675.33	1.403
675.52	1.402
675.71	1.404
675.89	1.400
676.08	1.386
676.27	1.386
676.46	1.388
676.65	1.387
676.84	1.384
677.02	1.388
677.21	1.394
677.40	1.390
677.59	1.384
677.78	1.383
677.96	1.396
678.15	1.395
678.34	1.393
678.53	1.396
678.72	1.394
678.90	1.386
679.09	1.378
679.28	1.370
679.47	1.372
679.66	1.371
679.84	1.366
680.03	1.354
680.22	1.352
680.41	1.361
680.60	1.351
680.78	1.352
680.97	1.358
681.16	1.356
681.35	1.351
681.53	1.349
681.72	1.350
681.91	1.356
682.10	1.350
682.29	1.357
682.47	1.348
682.66	1.337
682.85	1.331
683.04	1.327
683.22	1.327
683.41	1.337
683.60	1.336
683.79	1.342
683.97	1.335
684.16	1.333
684.35	1.323
684.54	1.327
684.72	1.337
684.91	1.344
685.10	1.337
685.29	1.344
685.47	1.333
685.66	1.331
685.85	1.321
686.04	1.321
686.22	1.331
686.41	1.343
686.60	1.332
686.79	1.348
686.97	1.348
687.16	1.356
687.35	1.346
687.54	1.362
687.72	1.375
687.91	1.373
688.10	1.385
688.29	1.386
688.47	1.372
688.66	1.376
688.85	1.358
689.03	1.353
689.22	1.379
689.41	1.383
689.60	1.365
689.78	1.358
689.97	1.361
690.16	1.350
690.34	1.338
690.53	1.343
690.72	1.341
690.91	1.334
691.09	1.330
691.28	1.302
691.47	1.297
691.65	1.294
691.84	1.285
692.03	1.284
692.21	1.277
692.40	1.277
692.59	1.269
692.77	1.269
692.96	1.274
693.15	1.274
693.34	1.267
693.52	1.266
693.71	1.266
693.90	1.268
694.08	1.272
694.27	1.277
694.46	1.321
694.64	1.324
694.83	1.321
695.02	1.319
695.20	1.321
695.39	1.321
695.58	1.323
695.76	1.329
695.95	1.322
696.14	1.318
696.32	1.309
696.51	1.265
696.70	1.265
696.88	1.271
697.07	1.266
697.26	1.268
697.44	1.272
697.63	1.267
697.81	1.260
698.00	1.265
698.19	1.263
698.37	1.263
698.56	1.263
698.75	1.265
698.93	1.259
699.12	1.260
699.31	1.257
699.49	1.256
699.68	1.260
699.87	1.270
700.05	1.270
700.24	1.267
700.42	1.273
700.61	1.273
700.80	1.267
700.98	1.271
701.17	1.274
701.36	1.270
701.54	1.269
701.73	1.274
701.91	1.266
702.10	1.263
702.29	1.261
702.47	1.256
702.66	1.265
702.84	1.271
703.03	1.266
703.22	1.275
703.40	1.278
703.59	1.288
703.77	1.289
703.96	1.290
704.15	1.295
704.33	1.295
704.52	1.296
704.70	1.288
704.89	1.282
705.08	1.280
705.26	1.267
705.45	1.264
705.63	1.262
705.82	1.252
706.00	1.249
706.19	1.247
706.38	1.248
706.56	1.247
706.75	1.244
706.93	1.244
707.12	1.248
707.30	1.248
707.49	1.243
707.68	1.236
707.86	1.232
708.05	1.233
708.23	1.225
708.42	1.226
708.60	1.238
708.79	1.236
708.98	1.233
709.16	1.231
709.35	1.237
709.53	1.254
709.72	1.251
709.90	1.257
710.09	1.263
710.27	1.268
710.46	1.285
710.64	1.274
710.83	1.278
711.02	1.283
711.20	1.281
711.39	1.275
711.57	1.259
711.76	1.259
711.94	1.256
712.13	1.263
712.31	1.260
712.50	1.242
712.68	1.238
712.87	1.242
713.05	1.242
713.24	1.243
713.42	1.241
713.61	1.244
713.79	1.251
713.98	1.247
714.16	1.250
714.35	1.250
714.54	1.255
714.72	1.252
714.91	1.246
715.09	1.276
715.28	1.283
715.46	1.286
715.65	1.278
715.83	1.276
716.02	1.288
716.20	1.274
716.39	1.276
716.57	1.277
716.76	1.286
716.94	1.289
717.12	1.254
717.31	1.262
717.49	1.274
717.68	1.285
717.86	1.284
718.05	1.292
718.23	1.297
718.42	1.305
718.60	1.313
718.79	1.356
718.97	1.366
719.16	1.369
719.34	1.360
719.53	1.358
719.71	1.357
719.90	1.360
720.08	1.348
720.27	1.348
720.45	1.345
720.63	1.334
720.82	1.300
721.00	1.310
721.19	1.319
721.37	1.312
721.56	1.310
721.74	1.318
721.93	1.358
722.11	1.389
722.30	1.389
722.48	1.409
722.66	1.410
722.85	1.401
723.03	1.409
723.22	1.407
723.40	1.421
723.59	1.417
723.77	1.446
723.95	1.403
724.14	1.412
724.32	1.419
724.51	1.413
724.69	1.425
724.88	1.423
725.06	1.407
725.24	1.408
725.43	1.414
725.61	1.435
725.80	1.397
725.98	1.398
726.16	1.373
726.35	1.401
726.53	1.397
726.72	1.392
726.90	1.456
727.09	1.458
727.27	1.494
727.45	1.483
727.64	1.531
727.82	1.578
728.01	1.595
728.19	1.585
728.37	1.625
728.56	1.653
728.74	1.709
728.92	1.606
729.11	1.621
729.29	1.582
729.48	1.595
729.66	1.530
729.84	1.516
730.03	1.522
730.21	1.533
730.40	1.467
730.58	1.468
730.76	1.446
730.95	1.452
731.13	1.451
731.31	1.542
731.50	1.572
731.68	1.584
731.86	1.576
732.05	1.694
732.23	1.703
732.42	1.737
732.60	1.766
732.78	1.823
732.97	2.020
733.15	2.112
733.33	1.860
733.52	1.924
733.70	2.017
733.88	2.124
734.07	1.859
734.25	2.296
734.43	2.511
734.62	2.546
734.80	2.452
734.98	2.102
735.17	2.172
735.35	2.396
735.53	2.217
735.72	2.237
735.90	-0.000
736.08	-0.000
736.27	3.179
736.45	-0.000
736.63	-0.000
736.82	-0.000
737.00	-0.000
737.18	-0.000
737.37	-0.000
737.55	-0.000
737.73	-0.000
737.92	-0.000
738.10	-0.000
738.28	-0.000
738.46	-0.000
738.65	-0.000
738.83	-0.000
739.01	-0.000
739.20	-0.000
739.38	-0.000
739.56	-0.000
739.75	-0.000
739.93	-0.000
740.11	-0.000
740.29	-0.000
740.48	-0.000
740.66	-0.000
740.84	-0.000
741.03	-0.000
741.21	-0.000
741.39	-0.000
741.57	-0.000
741.76	-0.000
741.94	-0.000
742.12	-0.000
742.31	-0.000
742.49	-0.000
742.67	-0.000
742.85	-0.000
743.04	-0.000
743.22	-0.000
743.40	-0.000
743.58	-0.000
743.77	-0.000
743.95	-0.000
744.13	-0.000
744.31	-0.000
744.50	-0.000
744.68	-0.000
744.86	-0.000
745.04	-0.000
745.23	-0.000
745.41	-0.000
745.59	-0.000
745.77	-0.000
745.96	-0.000
746.14	-0.000
746.32	-0.000
746.50	-0.000
746.69	-0.000
746.87	-0.000
747.05	-0.000
747.23	-0.000
747.42	-0.000
747.60	-0.000
747.78	-0.000
747.96	-0.000
748.14	-0.000
748.33	-0.000
748.51	-0.000
748.69	-0.000
748.87	-0.000
749.06	-0.000
749.24	-0.000
749.42	-0.000
749.60	-0.000
749.78	-0.000
749.97	-0.000
750.15	-0.000
750.33	-0.000
750.51	-0.000
750.69	-0.000
750.88	-0.000
751.06	-0.000
751.24	-0.000
751.42	-0.000
751.60	-0.000
751.79	-0.000
751.97	-0.000
752.15	-0.000
752.33	-0.000
752.51	-0.000
752.69	-0.000
752.88	-0.000
753.06	-0.000
753.24	-0.000
753.42	-0.000
753.60	-0.000
753.78	-0.000
753.97	-0.000
754.15	-0.000
754.33	-0.000
754.51	-0.000
754.69	-0.000
754.87	-0.000
755.06	-0.000
755.24	-0.000
755.42	-0.000
755.60	-0.000
755.78	-0.000
755.96	-0.000
756.15	-0.000
756.33	-0.000
756.51	-0.000
756.69	-0.000
756.87	-0.000
757.05	-0.000
757.23	-0.000
757.42	-0.000
757.60	-0.000
757.78	-0.000
757.96	-0.000
758.14	-0.000
758.32	-0.000
758.50	-0.000
758.69	-0.000
758.87	-0.000
759.05	-0.000
759.23	-0.000
759.41	-0.000
759.59	-0.000
759.77	-0.000
759.95	-0.000
760.13	-0.000
760.32	-0.000
760.50	-0.000
760.68	-0.000
760.86	-0.000
761.04	-0.000
761.22	-0.000
761.40	-0.000
761.58	-0.000
761.76	-0.000
761.95	-0.000
762.13	-0.000
762.31	-0.000
762.49	-0.000
762.67	-0.000
762.85	-0.000
763.03	-0.000
763.21	-0.000
763.39	-0.000
763.57	-0.000
763.75	-0.000
763.94	-0.000
764.12	-0.000
764.30	-0.000
764.48	-0.000
764.66	-0.000
764.84	-0.000
765.02	-0.000
765.20	-0.000
765.38	-0.000
765.56	-0.000
765.74	-0.000
765.92	-0.000
766.10	-0.000
766.28	-0.000
766.46	-0.000
766.65	-0.000
766.83	-0.000
767.01	-0.000
767.19	-0.000
767.37	-0.000
767.55	-0.000
767.73	-0.000
767.91	-0.000
768.09	-0.000
768.27	-0.000
768.45	-0.000
768.63	-0.000
768.81	-0.000
768.99	-0.000
769.17	-0.000
769.35	-0.000
769.53	-0.000
769.71	-0.000
769.89	-0.000
770.07	-0.000
770.25	-0.000
770.43	-0.000
770.61	-0.000
770.79	-0.000
770.97	-0.000
771.15	-0.000
771.33	-0.000
771.51	-0.000
771.69	-0.000
771.87	-0.000
772.05	-0.000
772.24	-0.000
772.42	-0.000
772.60	-0.000
772.78	-0.000
772.96	-0.000
773.14	-0.000
773.32	-0.000
773.49	-0.000
773.67	-0.000
773.85	-0.000
774.03	-0.000
774.21	-0.000
774.39	-0.000
774.57	-0.000
774.75	-0.000
774.93	-0.000
775.11	-0.000
775.29	-0.000
775.47	-0.000
775.65	-0.000
775.83	-0.000
776.01	-0.000
776.19	-0.000
776.37	-0.000
776.55	-0.000
776.73	-0.000
776.91	-0.000
777.09	-0.000
777.27	-0.000
777.45	-0.000
777.63	-0.000
777.81	-0.000
777.99	-0.000
778.17	-0.000
778.35	-0.000
778.53	-0.000
778.71	-0.000
778.89	-0.000
779.07	-0.000
779.24	-0.000
779.42	-0.000
779.60	-0.000
779.78	-0.000
779.96	-0.000
780.14	-0.000
780.32	-0.000
780.50	-0.000
780.68	-0.000
780.86	-0.000
781.04	-0.000
781.22	-0.000
781.40	-0.000
781.58	-0.000
781.75	-0.000
781.93	-0.000
782.11	-0.000
782.29	-0.000
782.47	-0.000
782.65	-0.000
782.83	-0.000
783.01	-0.000
783.19	-0.000
783.37	-0.000
783.55	-0.000
783.72	-0.000
783.90	-0.000
784.08	-0.000
784.26	-0.000
784.44	-0.000
784.62	-0.000
784.80	-0.000
784.98	-0.000
785.16	-0.000
785.33	-0.000
785.51	-0.000
785.69	-0.000
785.87	-0.000
786.05	-0.000
786.23	-0.000
786.41	-0.000
786.59	-0.000
786.77	-0.000
786.94	-0.000
787.12	-0.000
787.30	-0.000
787.48	-0.000
787.66	-0.000
787.84	-0.000
788.02	-0.000
788.19	-0.000
788.37	3.172
788.55	-0.000
788.73	4.466
788.91	2.777
789.09	2.184
789.27	2.069
789.44	2.475
789.62	2.661
789.80	-0.000
789.98	-0.000
790.16	-0.000
790.34	-0.000
790.51	-0.000
790.69	-0.000
790.87	-0.000
791.05	-0.000
791.23	-0.000
791.41	-0.000
791.58	-0.000
791.76	-0.000
791.94	2.310
792.12	2.706
792.30	3.076
792.48	2.917
792.65	2.432
792.83	2.958
793.01	3.102
793.19	3.263
793.37	2.246
793.54	2.236
793.72	2.539
793.90	2.506
794.08	2.137
794.26	2.134
794.43	2.349
794.61	2.010
794.79	1.844
794.97	1.876
795.15	1.906
795.32	2.003
795.50	1.881
795.68	1.828
795.86	1.832
796.04	1.894
796.21	1.862
796.39	1.817
796.57	1.933
796.75	2.131
796.92	2.130
797.10	2.237
797.28	2.283
797.46	2.361
797.64	2.527
797.81	4.109
797.99	3.814
798.17	-0.000
798.35	3.129
798.52	-0.000
798.70	2.694
798.88	-0.000
799.06	-0.000
799.23	-0.000
799.41	-0.000
799.59	-0.000
799.77	3.170
799.94	-0.000
800.12	-0.000
800.30	-0.000
800.48	-0.000
800.65	-0.000
800.83	-0.000
801.01	-0.000
801.19	-0.000
801.36	-0.000
801.54	-0.000
801.72	-0.000
801.90	-0.000
802.07	-0.000
802.25	-0.000
802.43	2.323
802.60	2.269
802.78	2.408
802.96	2.757
803.14	2.363
803.31	2.271
803.49	2.235
803.67	2.024
803.84	2.068
804.02	1.946
804.20	2.012
804.38	2.042
804.55	2.013
804.73	1.869
804.91	1.836
805.08	2.002
805.26	1.959
805.44	-0.000
805.61	-0.000
805.79	-0.000
805.97	-0.000
806.15	-0.000
806.32	-0.000
806.50	-0.000
806.68	-0.000
806.85	-0.000
807.03	-0.000
807.21	-0.000
807.38	1.941
807.56	1.868
807.74	2.016
807.91	2.151
808.09	2.160
808.27	-0.000
808.44	-0.000
808.62	-0.000
808.80	-0.000
808.97	-0.000
809.15	-0.000
809.33	-0.000
809.50	-0.000
809.68	-0.000
809.86	-0.000
810.03	-0.000
810.21	-0.000
810.39	-0.000
810.56	-0.000
810.74	-0.000
810.91	-0.000
811.09	-0.000
811.27	-0.000
811.44	-0.000
811.62	-0.000
811.80	-0.000
811.97	-0.000
812.15	-0.000
812.33	-0.000
812.50	-0.000
812.68	-0.000
812.85	-0.000
813.03	-0.000
813.21	-0.000
813.38	3.113
813.56	2.902
813.74	-0.000
813.91	-0.000
814.09	-0.000
814.26	-0.000
814.44	-0.000
814.62	-0.000
814.79	-0.000
814.97	-0.000
815.14	-0.000
815.32	-0.000
815.50	-0.000
815.67	-0.000
815.85	-0.000
816.02	-0.000
816.20	-0.000
816.38	-0.000
816.55	-0.000
816.73	-0.000
816.90	-0.000
817.08	-0.000
817.26	-0.000
817.43	-0.000
817.61	-0.000
817.78	-0.000
817.96	-0.000
818.13	-0.000
818.31	-0.000
818.49	-0.000
818.66	-0.000
818.84	-0.000
819.01	-0.000
819.19	-0.000
819.36	-0.000
819.54	-0.000
819.71	-0.000
819.89	-0.000
820.07	-0.000
820.24	-0.000
820.42	-0.000
820.59	-0.000
820.77	-0.000
820.94	-0.000
821.12	-0.000
821.29	-0.000
821.47	-0.000
821.64	-0.000
821.82	-0.000
822.00	-0.000
822.17	-0.000
822.35	-0.000
822.52	-0.000
822.70	-0.000
822.87	-0.000
823.05	-0.000
823.22	-0.000
823.40	-0.000
823.57	-0.000
823.75	-0.000
823.92	-0.000
824.10	-0.000
824.27	-0.000
824.45	-0.000
824.62	-0.000
824.80	-0.000
824.97	-0.000
825.15	-0.000
825.32	-0.000
825.50	-0.000
825.67	-0.000
825.85	-0.000
826.02	-0.000
826.20	-0.000
826.37	-0.000
826.55	-0.000
826.72	-0.000
826.90	-0.000
827.07	-0.000
827.25	-0.000
827.42	-0.000
827.60	-0.000
827.77	-0.000
827.95	-0.000
828.12	-0.000
828.30	-0.000
828.47	-0.000
828.65	-0.000
828.82	-0.000
829.00	-0.000
829.17	-0.000
829.34	-0.000
829.52	-0.000
829.69	-0.000
829.87	-0.000
830.04	-0.000
830.22	-0.000
830.39	-0.000
830.57	-0.000
830.74	-0.000
830.92	-0.000
831.09	-0.000
831.26	-0.000
831.44	-0.000
831.61	-0.000
831.79	-0.000
831.96	-0.000
832.14	-0.000
832.31	-0.000
832.49	-0.000
832.66	-0.000
832.83	-0.000
833.01	-0.000
833.18	-0.000
833.36	-0.000
833.53	-0.000
833.70	-0.000
833.88	-0.000
834.05	-0.000
834.23	-0.000
834.40	-0.000
834.58	-0.000
834.75	-0.000
834.92	-0.000
835.10	-0.000
835.27	-0.000
835.45	-0.000
835.62	-0.000
835.79	-0.000
835.97	-0.000
836.14	-0.000
836.32	-0.000
836.49	-0.000
836.66	-0.000
836.84	-0.000
837.01	-0.000
837.18	-0.000
837.36	-0.000
837.53	-0.000
837.71	-0.000
837.88	-0.000
838.05	-0.000
838.23	-0.000
838.40	-0.000
838.58	-0.000
838.75	-0.000
838.92	-0.000
839.10	-0.000
839.27	-0.000
839.44	-0.000
839.62	-0.000
839.79	-0.000
839.96	-0.000
840.14	-0.000
840.31	-0.000
840.48	-0.000
840.66	-0.000
840.83	-0.000
841.01	-0.000
841.18	-0.000
841.35	-0.000
841.53	-0.000
841.70	-0.000
841.87	-0.000
842.05	-0.000
842.22	-0.000
842.39	-0.000
842.57	-0.000
842.74	-0.000
842.91	-0.000
843.09	-0.000
843.26	-0.000
843.43	-0.000
843.60	-0.000
843.78	-0.000
843.95	-0.000
844.12	-0.000
844.30	-0.000
844.47	-0.000
844.64	-0.000
844.82	-0.000
844.99	-0.000
845.16	-0.000
845.34	-0.000
845.51	-0.000
845.68	-0.000
845.85	-0.000
846.03	-0.000
846.20	-0.000
846.37	-0.000
846.55	-0.000
846.72	-0.000
846.89	-0.000
847.06	-0.000
847.24	-0.000
847.41	-0.000
847.58	-0.000
847.76	-0.000
847.93	-0.000
848.10	-0.000
848.27	-0.000
848.45	-0.000
848.62	-0.000
848.79	-0.000
848.97	-0.000
849.14	-0.000
849.31	-0.000
849.48	-0.000
849.66	-0.000
849.83	-0.000
850.00	-0.000
850.17	-0.000
850.35	-0.000
850.52	-0.000
850.69	-0.000
850.86	-0.000
851.04	-0.000
851.21	-0.000
851.38	-0.000
851.55	-0.000
851.72	-0.000
851.90	-0.000
852.07	-0.000
852.24	-0.000
852.41	-0.000
852.59	-0.000
852.76	-0.000
852.93	-0.000
853.10	-0.000
853.28	-0.000
853.45	-0.000
853.62	-0.000
853.79	-0.000
853.96	-0.000
854.14	-0.000
854.31	-0.000
854.48	-0.000
854.65	-0.000
854.82	-0.000
855.00	-0.000
855.17	-0.000
855.34	-0.000
855.51	-0.000
855.68	-0.000
855.86	-0.000
856.03	-0.000
856.20	-0.000
856.37	-0.000
856.54	-0.000
856.72	-0.000
856.89	-0.000
857.06	-0.000
857.23	-0.000
857.40	-0.000
857.57	-0.000
857.75	-0.000
857.92	-0.000
858.09	-0.000
858.26	-0.000
858.43	-0.000
858.60	-0.000
858.78	-0.000
858.95	-0.000
859.12	-0.000
859.29	-0.000
859.46	-0.000
859.63	-0.000
859.81	-0.000
859.98	-0.000
860.15	-0.000
860.32	-0.000
860.49	-0.000
860.66	-0.000
860.83	-0.000
861.01	-0.000
861.18	-0.000
861.35	-0.000
861.52	-0.000
861.69	-0.000
861.86	-0.000
862.03	-0.000
862.21	-0.000
862.38	-0.000
862.55	-0.000
862.72	-0.000
862.89	-0.000
863.06	-0.000
863.23	-0.000
863.40	-0.000
863.58	-0.000
863.75	-0.000
863.92	-0.000
864.09	-0.000
864.26	-0.000
864.43	-0.000
864.60	-0.000
864.77	-0.000
864.94	-0.000
865.11	-0.000
865.29	-0.000
865.46	-0.000
865.63	-0.000
865.80	-0.000
865.97	-0.000
866.14	-0.000
866.31	-0.000
866.48	-0.000
866.65	-0.000
866.82	-0.000
866.99	-0.000
867.16	-0.000
867.34	-0.000
867.51	-0.000
867.68	-0.000
867.85	-0.000
868.02	-0.000
868.19	-0.000
868.36	-0.000
868.53	-0.000
868.70	-0.000
868.87	-0.000
869.04	-0.000
869.21	-0.000
869.38	-0.000
869.55	-0.000
869.72	-0.000
869.89	-0.000
870.06	-0.000
870.24	-0.000
870.41	-0.000
870.58	-0.000
870.75	-0.000
870.92	-0.000
871.09	-0.000
871.26	-0.000
871.43	-0.000
871.60	-0.000
871.77	-0.000
871.94	-0.000
872.11	-0.000
872.28	-0.000
872.45	-0.000
872.62	-0.000
872.79	-0.000
872.96	-0.000
873.13	-0.000
873.30	-0.000
873.47	-0.000
873.64	-0.000
873.81	-0.000
873.98	-0.000
874.15	-0.000
874.32	-0.000
874.49	-0.000
874.66	-0.000
874.83	-0.000
875.00	-0.000
875.17	-0.000
875.34	-0.000
875.51	-0.000
875.68	-0.000
875.85	-0.000
876.02	-0.000
876.19	-0.000
876.36	-0.000
876.53	-0.000
876.70	-0.000
876.87	-0.000
877.04	-0.000
877.21	-0.000
877.38	-0.000
877.55	-0.000
877.72	-0.000
877.89	-0.000
878.06	-0.000
878.23	-0.000
878.39	-0.000
878.56	-0.000
878.73	-0.000
878.90	-0.000
879.07	-0.000
879.24	-0.000
879.41	-0.000
879.58	-0.000
879.75	-0.000
879.92	-0.000
880.09	-0.000
880.26	-0.000
880.43	-0.000
880.60	-0.000
880.77	-0.000
880.94	-0.000
881.11	-0.000
881.27	-0.000
881.44	-0.000
881.61	-0.000
881.78	-0.000
881.95	-0.000
882.12	-0.000
882.29	-0.000
882.46	-0.000
882.63	-0.000
882.80	-0.000
882.97	-0.000
883.14	-0.000
883.30	-0.000
883.47	-0.000
883.64	-0.000
883.81	-0.000
883.98	-0.000
884.15	-0.000
884.32	-0.000
884.49	-0.000
884.66	-0.000
884.82	-0.000
884.99	-0.000
885.16	-0.000
885.33	-0.000
885.50	-0.000
885.67	-0.000
885.84	-0.000
886.01	-0.000
886.17	-0.000
886.34	-0.000
886.51	-0.000
886.68	-0.000
886.85	-0.000
887.02	-0.000
887.19	-0.000
887.36	-0.000
887.52	-0.000
887.69	-0.000
887.86	-0.000
888.03	-0.000
888.20	-0.000
888.37	-0.000
888.54	-0.000
888.70	-0.000
888.87	-0.000
889.04	-0.000
889.21	-0.000
889.38	-0.000
889.55	-0.000
889.71	-0.000
889.88	-0.000
890.05	-0.000
890.22	-0.000
890.39	-0.000
>>>>>End Processed Spectral Data<<<<<
